date,long_short
2015-03-12,-0.11816713741607493
2015-03-13,0.09676639604615492
2015-03-16,0.0885533526911767
2015-03-17,0.0808659906382975
2015-03-18,0.15025399958406266
2015-03-19,0.12939703494559474
2015-03-20,0.07928052560991422
2015-03-23,0.06600527111270568
2015-03-24,0.04932308769886823
2015-03-25,0.03452154154416329
2015-03-26,0.054721338175560436
2015-03-27,0.07385240333066505
2015-03-30,0.06691479152260744
2015-03-31,0.008036611376764959
2015-04-01,-0.019599406636946128
2015-04-02,0.03521540343645365
2015-04-03,0.02513349805964613
2015-04-07,0.019625069088699897
2015-04-08,-0.007446849767087468
2015-04-09,-0.006306714865427086
2015-04-10,0.006615053450813549
2015-04-13,8.087153545688341e-05
2015-04-14,0.0058150696501865495
2015-04-15,0.006040230647336928
2015-04-16,0.02058439111160877
2015-04-17,0.03990892057986288
2015-04-20,0.032484893909464664
2015-04-21,0.03512913153984759
2015-04-22,0.03597930831097982
2015-04-23,0.03292640307826235
2015-04-24,0.03596475694820477
2015-04-27,0.029790511008800397
2015-04-28,0.028339931880114237
2015-04-29,0.026727785392340234
2015-04-30,0.004310454881098769
2015-05-04,0.0156528555879185
2015-05-05,0.01667299245285428
2015-05-06,0.004233001024792293
2015-05-07,0.004989643557012105
2015-05-08,-0.0010223637474238573
2015-05-11,-0.004189371084498655
2015-05-12,-0.01961265532423888
2015-05-13,-0.020440591332197347
2015-05-14,-0.011418023470608288
2015-05-15,0.008633405169321567
2015-05-18,-0.017151484711065826
2015-05-19,-0.03276241945956465
2015-05-20,-0.03431185672954688
2015-05-21,-0.05074930491238211
2015-05-22,-0.051991517653631525
2015-05-25,-0.054479604412138866
2015-05-26,-0.05443657906043975
2015-05-27,-0.05349686367820636
2015-05-28,-0.06300488239195803
2015-05-29,-0.05989671176932029
2015-06-01,-0.10250351257417356
2015-06-02,-0.12715782480383808
2015-06-03,-0.1544326202058888
2015-06-04,-0.1345108961210368
2015-06-05,-0.13002959092372582
2015-06-08,-0.14548020392373326
2015-06-09,-0.14384330681016483
2015-06-10,-0.12070689113949701
2015-06-11,-0.11614004784514759
2015-06-12,-0.1836730181247706
2015-06-15,-0.15081653618840593
2015-06-16,-0.14150525998482075
2015-06-17,-0.1294824916049942
2015-06-18,-0.13250452682854996
2015-06-19,-0.11733640347540245
2015-06-23,-0.11193513863069812
2015-06-24,-0.10805807240732013
2015-06-25,-0.06806400607567445
2015-06-26,-0.03769122008142209
2015-06-29,-0.023336465382181898
2015-06-30,-0.08622486652690667
2015-07-01,-0.04589256590139182
2015-07-02,-0.02298627102997272
2015-07-03,-0.028111705067118825
2015-07-06,-0.027899875784855255
2015-07-07,-0.01501690154572316
2015-07-08,-0.012896426089885038
2015-07-09,-0.016774002787054827
2015-07-10,-0.034862601171794044
2015-07-13,-0.054514212908622475
2015-07-14,-0.08328209776021873
2015-07-15,-0.03384180282539047
2015-07-16,-0.04067627940019531
2015-07-17,-0.047169099359033226
2015-07-20,-0.05720662489676788
2015-07-21,-0.045329709111499056
2015-07-22,-0.05690950451305771
2015-07-23,-0.05889048826259518
2015-07-24,-0.05168316170412535
2015-07-27,-0.030380759220521924
2015-07-28,-0.042683620789861286
2015-07-29,-0.04089724473925987
2015-07-30,-0.030739135869386938
2015-07-31,-0.029501523400511022
2015-08-03,0.0018636021463769407
2015-08-04,-0.005827256346830876
2015-08-05,0.00942680213293029
2015-08-06,0.01615047165564186
2015-08-07,0.015330799731292378
2015-08-10,0.004780883509282741
2015-08-11,0.028660031950863092
2015-08-12,0.03656392130908605
2015-08-13,0.03891689428412545
2015-08-14,0.021479121183244354
2015-08-17,0.020617660128010695
2015-08-18,0.036147846817116955
2015-08-19,0.028710028321145747
2015-08-20,0.025715581362758765
2015-08-21,0.060991758760583534
2015-08-24,0.07137048682965978
2015-08-25,0.10785284449424584
2015-08-26,0.08264833764579478
2015-08-27,0.05757634331228884
2015-08-28,0.04365097413778013
2015-08-31,0.04737473227587431
2015-09-01,0.08372217073182754
2015-09-02,0.0851865604987516
2015-09-07,0.04602426450884098
2015-09-08,0.055043989101964744
2015-09-09,0.04971704256992633
2015-09-10,0.06558062786413003
2015-09-11,0.0459137768735682
2015-09-14,0.0828658752610584
2015-09-15,0.09388869610411545
2015-09-16,0.07502024992964657
2015-09-17,0.10126106369690308
2015-09-18,0.10489851958583699
2015-09-21,0.10793297927965595
2015-09-22,0.10945483639608317
2015-09-23,0.10056483905565008
2015-09-24,0.08496179431701169
2015-09-25,0.0834182947782787
2015-09-28,0.06572804005642262
2015-09-29,0.09220213437874766
2015-09-30,0.07726700209259642
2015-10-08,0.08466253480801936
2015-10-09,0.04802722182496708
2015-10-12,0.05738956860940775
2015-10-13,0.022257872029800806
2015-10-14,0.047976976710691274
2015-10-15,0.04693791690531217
2015-10-16,0.04772578035833012
2015-10-19,0.056948765523685246
2015-10-20,0.033343367903998306
2015-10-21,0.04575344024969687
2015-10-22,0.004741954773338913
2015-10-23,0.01726343186404533
2015-10-26,0.02117706300556381
2015-10-27,0.020556902221479975
2015-10-28,0.03085641128210606
2015-10-29,0.015531480937409456
2015-10-30,0.025870269867132756
2015-11-02,0.0010088582380380906
2015-11-03,-0.0011394282392190036
2015-11-04,-0.01838033209752643
2015-11-05,-0.01685735769690358
2015-11-06,-0.03319464699993449
2015-11-09,-0.032787451060891676
2015-11-10,-0.02360914445767967
2015-11-11,-0.03177934238697355
2015-11-12,-0.03989219359961557
2015-11-13,-0.04223066741618581
2015-11-16,-0.04511725480723794
2015-11-17,-0.029530686243832024
2015-11-18,-0.03316296465588427
2015-11-19,-0.024767206468753772
2015-11-20,-0.03197306988577313
2015-11-23,-0.02846510626617517
2015-11-24,-0.03626504675760783
2015-11-25,-0.04715953898399536
2015-11-26,-0.05636364925882567
2015-11-27,-0.06803168193127916
2015-11-30,-0.0422782050630688
2015-12-01,-0.047093377808209616
2015-12-02,-0.03375878591340871
2015-12-03,-0.07833243365323325
2015-12-04,-0.0564049715746236
2015-12-07,-0.0380360013026913
2015-12-08,-0.04815907308306085
2015-12-09,-0.051634743423702265
2015-12-10,-0.05015442082289975
2015-12-11,-0.05226229422636774
2015-12-14,-0.05807804434609151
2015-12-15,-0.05692541815319083
2015-12-16,-0.0617528576001158
2015-12-17,-0.05480785407681421
2015-12-18,-0.05499004761803919
2015-12-21,-0.06290765118988219
2015-12-22,-0.06417241388143997
2015-12-23,-0.05583759895002306
2015-12-24,-0.052377475068969115
2015-12-25,-0.05610004902837282
2015-12-28,-0.0463239062328092
2015-12-29,-0.03800519050316464
2015-12-30,-0.04129493296594394
2015-12-31,-0.049421405241997174
2016-01-04,-0.0124617159478344
2016-01-05,-0.028705245838653033
2016-01-06,-0.037173715501082595
2016-01-07,-0.02981061710364285
2016-01-08,-0.02693584689963871
2016-01-11,-0.010269595358041984
2016-01-12,-0.04836890196077896
2016-01-13,-0.03469376134428985
2016-01-14,-0.03793508859151156
2016-01-15,-0.03406091698645296
2016-01-18,-0.05394152484365417
2016-01-19,-0.06418162885072512
2016-01-20,-0.08586511715606639
2016-01-21,-0.07747218538574091
2016-01-22,-0.08821889440352812
2016-01-25,-0.07351436400655179
2016-01-26,-0.06210588786856459
2016-01-27,-0.05479948481313574
2016-01-28,-0.04129066891909678
2016-01-29,-0.01654320123520587
2016-02-01,-0.011039405234833335
2016-02-02,-0.02114101681521966
2016-02-03,-0.04984109138031004
2016-02-04,-0.04032918396481241
2016-02-05,-0.03293263966351333
2016-02-15,-0.03574107399275511
2016-02-16,-0.04033907812892598
2016-02-17,-0.02150197318896689
2016-02-18,-0.02059218321838895
2016-02-19,-0.024570312425030615
2016-02-22,-0.011313664377065172
2016-02-23,-0.01613199776099334
2016-02-24,-0.02062739307804639
2016-02-25,-0.01718727019344183
2016-02-26,-0.013753439840679827
2016-02-29,-0.01837093673078969
2016-03-01,-0.0210963768932843
2016-03-02,-0.01634463374188135
2016-03-03,-0.02746869798378634
2016-03-04,-0.021852797589981574
2016-03-07,-0.015078199106430734
2016-03-08,-0.019982323081591313
2016-03-09,-0.012101119057014005
2016-03-10,-0.01741711715877664
2016-03-11,-0.022854670800073765
2016-03-14,-0.012545184181802504
2016-03-15,0.003452350883884186
2016-03-16,-0.009811820390908554
2016-03-17,-0.010542455674566706
2016-03-18,-0.008764504120128969
2016-03-21,-0.022042593001087084
2016-03-22,-0.024043413945320793
2016-03-23,-0.02171414019959891
2016-03-24,-0.025821389857810215
2016-03-25,-0.030532065606303414
2016-03-28,-0.014521881889103437
2016-03-29,-0.005037738859905619
2016-03-30,-0.006763639098540276
2016-03-31,-0.015587680263247831
2016-04-01,-0.016562064367726177
2016-04-05,-0.024050936635134388
2016-04-06,-0.021042346722855428
2016-04-07,-0.014988530990265387
2016-04-08,-0.011901352561940172
2016-04-11,-0.01318843257599005
2016-04-12,-0.010718601046069542
2016-04-13,-0.018533924910383248
2016-04-14,-0.02312900591384879
2016-04-15,-0.024516140660118285
2016-04-18,-0.02952159604091918
2016-04-19,-0.025772380612281737
2016-04-20,-0.009234299574422247
2016-04-21,-0.004839037611387223
2016-04-22,-0.014564380759292443
2016-04-25,-0.0221329324675045
2016-04-26,-0.02901946242620959
2016-04-27,-0.02002252034278508
2016-04-28,-0.022455855598119814
2016-04-29,-0.024556465343079197
2016-05-03,-0.036443507641919115
2016-05-04,-0.0395139956468622
2016-05-05,-0.053881015753493626
2016-05-06,-0.043519001375450235
2016-05-09,-0.031700891042211965
2016-05-10,-0.03159730411782645
2016-05-11,-0.03432996696498061
2016-05-12,-0.033540402661187664
2016-05-13,-0.047785761689723115
2016-05-16,-0.04562271158961828
2016-05-17,-0.05254017060210857
2016-05-18,-0.06392162130278986
2016-05-19,-0.04968521161666045
2016-05-20,-0.045911884985018594
2016-05-23,-0.04884485472843052
2016-05-24,-0.0401256892382994
2016-05-25,-0.024526600929107384
2016-05-26,-0.01724943362177836
2016-05-27,-0.01977651827262919
2016-05-30,-0.028087052029509715
2016-05-31,-0.0248566859291944
2016-06-01,-0.029731765922749787
2016-06-02,-0.02474918867527519
2016-06-03,-0.034244741621529184
2016-06-06,-0.042939103129747844
2016-06-07,-0.025139095688149392
2016-06-08,-0.02568048208264305
2016-06-13,-0.055454632163526266
2016-06-14,-0.03898638584433067
2016-06-15,-0.04333182877723586
2016-06-16,-0.06300520261897058
2016-06-17,-0.06746695575880855
2016-06-20,-0.044085347680969805
2016-06-21,-0.050946184248467107
2016-06-22,-0.0424177061768487
2016-06-23,-0.04727819813905758
2016-06-24,-0.05293873114922338
2016-06-27,-0.06877920596550793
2016-06-28,-0.05613354796327253
2016-06-29,-0.054333762805438404
2016-06-30,-0.050899835784622115
2016-07-01,-0.044917130284740585
2016-07-04,-0.043020419203402493
2016-07-05,-0.05532834174204697
2016-07-06,-0.03204368717990258
2016-07-07,-0.046089884144812875
2016-07-08,-0.054220872127832616
2016-07-11,-0.05174281517672732
2016-07-12,-0.04776643796078557
2016-07-13,-0.040778577845518325
2016-07-14,-0.0416868623282718
2016-07-15,-0.026810738878696828
2016-07-18,-0.019338363057004176
2016-07-19,-0.01920281354724537
2016-07-20,-0.0273321406287094
2016-07-21,-0.017234264056414803
2016-07-22,-0.01276550793751876
2016-07-25,-0.022682438173451638
2016-07-26,-0.0175263909858884
2016-07-27,-0.026877634349189217
2016-07-28,-0.016788120195454476
2016-07-29,-0.01854735641988859
2016-08-01,-0.015323671127655605
2016-08-02,-0.007938665546128043
2016-08-03,-0.01752157810749546
2016-08-04,-0.028945341348648748
2016-08-05,-0.02246511699565492
2016-08-08,0.0015209798106422326
2016-08-09,-0.011967454844058714
2016-08-10,-0.009056882427249648
2016-08-11,-0.00041646161078735117
2016-08-12,0.007782903553566534
2016-08-15,-0.003327834012134382
2016-08-16,-0.009833403586824765
2016-08-17,-0.00878189366442841
2016-08-18,-0.012277939185664243
2016-08-19,-0.02655140275501267
2016-08-22,-0.02165989057554602
2016-08-23,-0.021769623918660434
2016-08-24,-0.00830833224721219
2016-08-25,-0.01772570208076628
2016-08-26,-0.025948598747895124
2016-08-29,-0.03175382527446091
2016-08-30,-0.03378419214216232
2016-08-31,-0.038361960380438154
2016-09-01,-0.03272654044345864
2016-09-02,-0.02701914705334387
2016-09-05,-0.038131002773264276
2016-09-06,-0.043915140356242645
2016-09-07,-0.038969448812496074
2016-09-08,-0.046916201646682365
2016-09-09,-0.05540183916558083
2016-09-12,-0.06294181281572653
2016-09-13,-0.028679543725241164
2016-09-14,-0.0485251680124381
2016-09-19,-0.045228811539593086
2016-09-20,-0.021358790727997873
2016-09-21,-0.03238772310826417
2016-09-22,-0.03639175007876766
2016-09-23,-0.0273725895555404
2016-09-26,-0.03900117290700318
2016-09-27,-0.028384527008462963
2016-09-28,-0.029546769466492064
2016-09-29,-0.021981765796658656
2016-09-30,-0.030484085675009542
2016-10-10,-0.016884258519906416
2016-10-11,-0.01756020990429543
2016-10-12,-0.026647432203267703
2016-10-13,-0.035241928607167884
2016-10-14,-0.03460957764117127
2016-10-17,-0.028533074953908263
2016-10-18,-0.029730857441560028
2016-10-19,-0.027709869798898883
2016-10-20,-0.025583624189976426
2016-10-21,-0.031782678810998735
2016-10-24,-0.021294226111995464
2016-10-25,0.0005245466199509038
2016-10-26,-0.010520227400340573
2016-10-27,-0.012475745626272787
2016-10-28,-0.023539143713416193
2016-10-31,-0.008066044238356218
2016-11-01,-0.006671028719770597
2016-11-02,-0.014060560719197595
2016-11-03,-0.00896147043195248
2016-11-04,-0.010771157512865693
2016-11-07,-0.01772617841345171
2016-11-08,-0.021337266946456275
2016-11-09,-0.026046290715952908
2016-11-10,-0.02155671086175384
2016-11-11,-0.02452148473341108
2016-11-14,-0.028102896747042017
2016-11-15,-0.02131587764472671
2016-11-16,-0.010312020676962897
2016-11-17,-0.03168883558718245
2016-11-18,-0.009960538363667636
2016-11-21,-0.0022548820360124297
2016-11-22,-0.0017868241267551084
2016-11-23,-0.002070371058992187
2016-11-24,-0.011000477485677364
2016-11-25,-0.0071217882330106945
2016-11-28,-0.004912112426748522
2016-11-29,-0.006596611780577966
2016-11-30,-0.009575555240356772
2016-12-01,-0.0102850579920909
2016-12-02,-0.01702642086603134
2016-12-05,-0.02942976897382643
2016-12-06,-0.03133321838087922
2016-12-07,-0.013938116569937792
2016-12-08,-0.020969980685076772
2016-12-09,-0.024168806746316007
2016-12-12,-0.03462328068743709
2016-12-13,-0.03706242526774808
2016-12-14,-0.04169715388675038
2016-12-15,-0.03609676984108384
2016-12-16,-0.03569322039457652
2016-12-19,-0.030103245603831253
2016-12-20,-0.034502942493534285
2016-12-21,-0.033177758213101934
2016-12-22,-0.035151998750653154
2016-12-23,-0.03432568174355753
2016-12-26,-0.03539914409177791
2016-12-27,-0.028133994303511285
2016-12-28,-0.015133685233371177
2016-12-29,-0.01413962646876599
2016-12-30,-0.010751361067718478
2017-01-03,0.0013782932010427407
2017-01-04,-0.003816657146956004
2017-01-05,0.00937610156446586
2017-01-06,-0.002021810866178468
2017-01-09,0.003121567979570552
2017-01-10,0.004761484403137364
2017-01-11,0.008725596119530294
2017-01-12,0.015846375808864915
2017-01-13,0.018253496732357787
2017-01-16,0.029791500530641907
2017-01-17,0.008395315898769653
2017-01-18,0.01811822814448342
2017-01-19,0.021465356479668043
2017-01-20,0.014686939397100623
2017-01-23,0.022868478910913544
2017-01-24,0.02164591439240641
2017-01-25,0.007605761280904122
2017-01-26,0.013348335091614906
2017-02-03,0.012510239683840605
2017-02-06,0.008148244829107792
2017-02-07,0.016746844477692042
2017-02-08,0.012180397399292154
2017-02-09,0.006385218883220344
2017-02-10,0.01281711186505403
2017-02-13,0.010655687448562979
2017-02-14,0.0046931278341930975
2017-02-15,0.012472183796271631
2017-02-16,0.012433502603069838
2017-02-17,0.01283516188002922
2017-02-20,0.011833254899466905
2017-02-21,-0.00031002372434936996
2017-02-22,0.011962752273211332
2017-02-23,0.012517929009141695
2017-02-24,0.019059014616977833
2017-02-27,0.02784208153936175
2017-02-28,0.028264517027411222
2017-03-01,0.023059658957049117
2017-03-02,0.0351786274763034
2017-03-03,0.0473747119732518
2017-03-06,0.049147263115503964
2017-03-07,0.04487860351618362
2017-03-08,0.04734710199779824
2017-03-09,0.0473603305735004
2017-03-10,0.04696325139890123
2017-03-13,0.061763505873890595
2017-03-14,0.054037405922682386
2017-03-15,0.05287126223930211
2017-03-16,0.052896801433536145
2017-03-17,0.0503462506812111
2017-03-20,0.04906735199199785
2017-03-21,0.045631165640188646
2017-03-22,0.04760803333671074
2017-03-23,0.05983440867046354
2017-03-24,0.07107888443810276
2017-03-27,0.07192877313166801
2017-03-28,0.05815381720577404
2017-03-29,0.053876195580964334
2017-03-30,0.040678938014511425
2017-03-31,0.039321364305135185
2017-04-05,0.028023464030733285
2017-04-06,0.02889720314546601
2017-04-07,0.01794670017212191
2017-04-10,0.035979239576914894
2017-04-11,0.028021056661075905
2017-04-12,0.0016811797531409538
2017-04-13,0.016501168505038213
2017-04-14,0.023943130857494
2017-04-17,0.022911451699775633
2017-04-18,0.022162576685581786
2017-04-19,0.021838502190211263
2017-04-20,0.012766412992053111
2017-04-21,-0.0010683447900969104
2017-04-24,0.006725526632880965
2017-04-25,0.041502138195917374
2017-04-26,0.010527713285148156
2017-04-27,-0.008675645443926301
2017-04-28,0.01481745182885428
2017-05-02,0.015571475454526112
2017-05-03,0.004914797115433842
2017-05-04,0.00411627861398936
2017-05-05,-0.01977808177140461
2017-05-08,-0.010978180427078585
2017-05-09,-0.011926914690282939
2017-05-10,-0.014443592557464635
2017-05-11,-0.02375697559811063
2017-05-12,-0.011849200047810954
2017-05-15,-0.016974381122095067
2017-05-16,0.012107386614970718
2017-05-17,0.004874771854664492
2017-05-18,0.010660778021877565
2017-05-19,0.01737324570605371
2017-05-22,0.014077078747123703
2017-05-23,0.01674904662957688
2017-05-24,0.021582409199886007
2017-05-25,0.023682387050236196
2017-05-26,0.033212246800651886
2017-05-31,0.022118889083623805
2017-06-01,0.02167847498997036
2017-06-02,0.01379149843477176
2017-06-05,0.0026762004060279093
2017-06-06,0.00014064822799216004
2017-06-07,0.015197578086052516
2017-06-08,0.008255192904812095
2017-06-09,0.00583541887171532
2017-06-12,-0.0025745933365468043
2017-06-13,-0.020814569725524118
2017-06-14,-0.014596242401354265
2017-06-15,-0.008268075570376635
2017-06-16,-0.004149328020045875
2017-06-19,-0.009424177407653847
2017-06-20,-0.007336040710220787
2017-06-21,-0.0034917629953183232
2017-06-22,-0.0043826219524639165
2017-06-23,0.0041633836237239125
2017-06-26,0.0026058450528549937
2017-06-27,-0.016143552107086755
2017-06-28,-0.019455681201596374
2017-06-29,-0.0063604741701638046
2017-06-30,-0.0059103646432805065
2017-07-03,0.0034369994121804873
2017-07-04,-0.005070797560753987
2017-07-05,-0.009751414060727909
2017-07-06,0.018470941413316594
2017-07-07,0.027555104130341866
2017-07-10,0.014344960448459128
2017-07-11,0.010063177186598271
2017-07-12,0.004894195899853668
2017-07-13,-0.005360323942468971
2017-07-14,-0.004754534373137345
2017-07-17,-0.01976077860447409
2017-07-18,-0.012383378630979727
2017-07-19,-0.014035281662929402
2017-07-20,-0.004267807902398606
2017-07-21,-0.010951837045341112
2017-07-24,-0.021542306531650755
2017-07-25,-0.012043293956306864
2017-07-26,-0.015114794747239708
2017-07-27,-0.01449472163920295
2017-07-28,-0.0016069781996037175
2017-07-31,-0.0061480048583369765
2017-08-01,-0.00019224971523621598
2017-08-02,-0.012824854579542189
2017-08-03,-0.0019694228307961595
2017-08-04,-0.0009580040521088226
2017-08-07,0.0024693056975868266
2017-08-08,-0.0009386133710150152
2017-08-09,-0.023248529573983163
2017-08-10,-0.021699572768775592
2017-08-11,-0.01843562195627403
2017-08-14,-0.001369430877669997
2017-08-15,0.008268483431541546
2017-08-16,0.001108753400209772
2017-08-17,0.0040228360298557655
2017-08-18,-8.080714741290351e-05
2017-08-21,0.007332101059856447
2017-08-22,0.01592018826316685
2017-08-23,0.005545499899316922
2017-08-24,0.005859301199645096
2017-08-25,0.0012835365155527967
2017-08-28,0.0151227438289557
2017-08-29,0.025001957887344533
2017-08-30,0.009789900583098535
2017-08-31,0.017010504327742794
2017-09-01,0.016276972040628807
2017-09-04,0.018789501368847605
2017-09-05,0.027455380062012365
2017-09-06,0.01979413335821388
2017-09-07,0.01779598111656571
2017-09-08,0.010679430122436632
2017-09-11,0.004445749440938576
2017-09-12,0.009598276646259868
2017-09-13,0.011048350646026387
2017-09-14,0.01572427612975804
2017-09-15,0.01446537036154327
2017-09-18,0.016056999942328794
2017-09-19,0.011370811301648156
2017-09-20,0.024652246445201198
2017-09-21,0.03448663219607531
2017-09-22,0.03309630790389222
2017-09-25,0.031230176680277954
2017-09-26,0.02353138067511685
2017-09-27,0.020536258712682037
2017-09-28,0.030504177752334313
2017-09-29,0.02119249292552745
2017-10-09,0.03163225653718939
2017-10-10,0.02577128124294176
2017-10-11,0.021050858666753124
2017-10-12,0.03536084225509378
2017-10-13,0.03935506969090915
2017-10-16,0.01535896678006515
2017-10-17,0.01748785461563646
2017-10-18,0.017211482062917942
2017-10-19,0.021010813769360686
2017-10-20,0.05267007736205715
2017-10-23,0.03607514989971944
2017-10-24,0.027888678940697173
2017-10-25,0.028019390447067846
2017-10-26,0.029953206284825857
2017-10-27,0.01615856901471479
2017-10-30,0.023142451356535247
2017-10-31,0.010256128499991628
2017-11-01,0.020222881297965123
2017-11-02,0.010387228176224228
2017-11-03,0.023348961973997405
2017-11-06,0.014169191036108484
2017-11-07,0.032484864350642954
2017-11-08,0.027812627005667948
2017-11-09,0.02490090552490057
2017-11-10,0.017899435554785896
2017-11-13,0.0392811515746987
2017-11-14,0.03035153995219328
2017-11-15,0.02232652790507444
2017-11-16,0.028977666702106053
2017-11-17,0.004400483041321138
2017-11-20,0.006454620337106164
2017-11-21,0.0008360056264848092
2017-11-22,0.0035791575966376693
2017-11-23,0.005558578504794312
2017-11-24,-0.002411327147187836
2017-11-27,-0.002478198657462913
2017-11-28,-0.0011172121596928763
2017-11-29,0.01487909502589926
2017-11-30,0.01726871915649469
2017-12-01,0.014656516772571695
2017-12-04,0.009346342385365138
2017-12-05,0.00557647244771349
2017-12-06,0.009931301276349882
2017-12-07,0.011182577010601009
2017-12-08,0.008874367701462063
2017-12-11,0.007030104142806129
2017-12-12,0.0010207155397142188
2017-12-13,0.004697529077595584
2017-12-14,-0.004412015695266306
2017-12-15,-0.0022878074036995107
2017-12-18,0.008817390852432631
2017-12-19,0.011146805007886607
2017-12-20,0.002056305436558034
2017-12-21,0.008009096937376128
2017-12-22,0.005427195085182281
2017-12-25,-0.006231897647753559
2017-12-26,5.530410878454295e-05
2017-12-27,0.0034729375811069878
2017-12-28,-0.008962220997346424
2017-12-29,-0.01418847015535804
2018-01-02,-0.006717480444606044
2018-01-03,0.001696963212530829
2018-01-04,-0.0053208643000062505
2018-01-05,-0.003914031627602496
2018-01-08,-0.005897005086178082
2018-01-09,-0.0034384429378203282
2018-01-10,-0.00964248361300421
2018-01-11,-0.013101230309158857
2018-01-12,-0.0059469617625694665
2018-01-15,-0.0275874370541856
2018-01-16,-0.03783528112536705
2018-01-17,-0.025724888649231684
2018-01-18,-0.013458196683117901
2018-01-19,-0.016715380030280794
2018-01-22,-0.03444884625957889
2018-01-23,-0.03282331263896392
2018-01-24,-0.02142849773551983
2018-01-25,-0.013472774469985002
2018-01-26,-0.01860430045260293
2018-01-29,-0.023920119616431035
2018-01-30,-0.020526774207889745
2018-01-31,-0.03170227761006041
2018-02-01,-0.043913129413688606
2018-02-02,-0.047285386769660834
2018-02-05,-0.04705340980047784
2018-02-06,-0.06353272783308277
2018-02-07,-0.04353871396523841
2018-02-08,-0.03683608811026899
2018-02-09,-0.0453215834009668
2018-02-12,-0.028390116917359213
2018-02-13,-0.04563172215092558
2018-02-14,-0.0562405388372437
2018-02-22,-0.05345998287309108
2018-02-23,-0.04063033118750284
2018-02-26,-0.028613270341409185
2018-02-27,-0.010275002397649717
2018-02-28,-0.012743057695225823
2018-03-01,0.0036362755652374137
2018-03-02,0.002119398340486467
2018-03-05,0.011486407545587121
2018-03-06,0.020472185831125055
2018-03-07,0.008676968015968352
2018-03-08,0.012466074552255388
2018-03-09,0.021345461713103184
2018-03-12,0.031764620163626744
2018-03-13,0.03374611196315368
2018-03-14,0.029394896992187537
2018-03-15,0.030190412983180176
2018-03-16,0.029699003694816747
2018-03-19,0.0371838566201716
2018-03-20,0.060596520878061624
2018-03-21,0.04604997062355902
2018-03-22,0.04456238542962321
2018-03-23,0.0352713683765283
2018-03-26,0.034207275545163895
2018-03-27,0.034993194472274336
2018-03-28,0.023707571521753124
2018-03-29,0.019568608450631117
2018-03-30,0.018730508316158134
2018-04-02,0.017834941050512088
2018-04-03,0.026929260469657504
2018-04-04,0.021484396760009322
2018-04-09,0.00755410943690818
2018-04-10,0.010002043861140758
2018-04-11,0.014094527432687978
2018-04-12,0.010076159077169966
2018-04-13,0.002202052648690306
2018-04-16,0.002795411131370079
2018-04-17,0.011226832168952386
2018-04-18,0.01781492761630339
2018-04-19,0.01779713417041394
2018-04-20,0.014245647599518803
2018-04-23,0.0025804345361269687
2018-04-24,0.011795157222558264
2018-04-25,2.9553646060428984e-05
2018-04-26,-5.171406893496322e-06
2018-04-27,0.01147438662592698
2018-05-02,-7.988750278917905e-05
2018-05-03,-0.006135431362173982
2018-05-04,0.0023974426612692404
2018-05-07,-0.0017832841410236958
2018-05-08,-0.0030203885728564833
2018-05-09,-0.005147290721025141
2018-05-10,-0.011121820327430351
2018-05-11,-0.00914542555692223
2018-05-14,-0.010082183883805551
2018-05-15,-0.007078913091391387
2018-05-16,-0.016045085871269973
2018-05-17,-0.010968406039548156
2018-05-18,-0.004313633730095676
2018-05-21,0.0038236784502021642
2018-05-22,0.003081037573356135
2018-05-23,0.0006902273473288062
2018-05-24,-0.01492094202995245
2018-05-25,-0.012751065042146695
2018-05-28,0.002904304344533065
2018-05-29,-0.0005812691547553012
2018-05-30,0.014580040404919573
2018-05-31,0.011430564256901768
2018-06-01,0.018016432952328007
2018-06-04,0.011553150403196988
2018-06-05,0.014467202839944196
2018-06-06,0.012695711955440753
2018-06-07,0.0213205728462664
2018-06-08,0.016462769843169647
2018-06-11,0.014595827563180216
2018-06-12,0.021543831460084817
2018-06-13,0.020220110438400496
2018-06-14,0.013504497275147576
2018-06-15,0.00963678419303006
2018-06-19,-0.006697045651648012
2018-06-20,-0.005443435310762482
2018-06-21,-0.023000205017922243
2018-06-22,-0.019302146591683944
2018-06-25,-0.019777405177827723
2018-06-26,-0.025898919710894426
2018-06-27,-0.026142877563780136
2018-06-28,-0.02645661367569328
2018-06-29,-0.03456823045996737
2018-07-02,-0.042463422105726234
2018-07-03,-0.03589083671858312
2018-07-04,-0.025990012977691088
2018-07-05,-0.022643714789096325
2018-07-06,-0.018801661265554104
2018-07-09,-0.01499720919090513
2018-07-10,-0.017730259508879746
2018-07-11,-0.009625721577180196
2018-07-12,-0.004676667861897119
2018-07-13,-0.009839046488070158
2018-07-16,-0.009372042146340992
2018-07-17,-0.005527928422377246
2018-07-18,0.010189352019779704
2018-07-19,0.00023328412452747194
2018-07-20,-0.001296839521031011
2018-07-23,0.006168531966744661
2018-07-24,0.0023071638427399482
2018-07-25,0.0008287312181848028
2018-07-26,0.004374121478491352
2018-07-27,0.013744585773075108
2018-07-30,0.020081528157706627
2018-07-31,0.015046144014641785
2018-08-01,0.010975989908380585
2018-08-02,0.013491846542999307
2018-08-03,0.009660313304419861
2018-08-06,-0.0113044132276677
2018-08-07,-0.0031425083265379794
2018-08-08,0.0006373847158596194
2018-08-09,-0.0007933911163675103
2018-08-10,-0.009812929253075586
2018-08-13,-0.006521278403679123
2018-08-14,-0.007532011347099521
2018-08-15,-0.007386781237322726
2018-08-16,-0.015222482763738101
2018-08-17,-0.021003608296885676
2018-08-20,-0.009987957215603907
2018-08-21,-0.009346914719715691
2018-08-22,-0.012678242326490079
2018-08-23,-0.002895751059957624
2018-08-24,-0.01365712904957192
2018-08-27,-0.008189491876015316
2018-08-28,-0.01635589137395349
2018-08-29,-0.017910572266151677
2018-08-30,-0.0164485699910168
2018-08-31,-0.018045908304353073
2018-09-03,-0.02170506825519164
2018-09-04,-0.017219036836474907
2018-09-05,-0.01528713468674368
2018-09-06,-0.026175939065205652
2018-09-07,-0.01727244609033183
2018-09-10,-0.02207452279550601
2018-09-11,-0.023128689999877786
2018-09-12,-0.015820118770829585
2018-09-13,-0.0014438919149491782
2018-09-14,-0.011523800235132244
2018-09-17,-0.009363890097182113
2018-09-18,-0.002554024091524401
2018-09-19,0.0098949638887319
2018-09-20,0.017460111355605767
2018-09-21,0.017208834567774903
2018-09-25,0.02037313742901714
2018-09-26,0.016810402811112388
2018-09-27,0.017033938816476177
2018-09-28,0.013097211870519126
2018-10-08,0.014272443523840536
2018-10-09,0.010229296319259867
2018-10-10,0.0001107430110372995
2018-10-11,-0.015232044814850973
2018-10-12,-0.02744457558191777
2018-10-15,-0.01913324110371591
2018-10-16,-0.025393503834717387
2018-10-17,-0.03413580341934212
2018-10-18,-0.05128154855653403
2018-10-19,-0.03862601619065789
2018-10-22,-0.01827973308970136
2018-10-23,-0.02211126632141999
2018-10-24,0.0009465484716575773
2018-10-25,0.004819910001039317
2018-10-26,0.00010496027498230198
2018-10-29,0.006290145240349054
2018-10-30,0.010424894114719665
2018-10-31,0.0100921168080313
2018-11-01,0.015220561152310505
2018-11-02,0.018246929133674435
2018-11-05,0.02403493560686439
2018-11-06,0.034299563927447985
2018-11-07,0.028556836395051757
2018-11-08,0.026467145114392243
2018-11-09,0.03275254385113402
2018-11-12,0.023086265882905313
2018-11-13,0.03850341083011362
2018-11-14,0.04027433146164023
2018-11-15,0.03779755247521689
2018-11-16,0.034270108785229694
2018-11-19,0.03437594830827147
2018-11-20,0.026663440028645076
2018-11-21,0.03054258592663016
2018-11-22,0.040818585950589195
2018-11-23,0.02743484667926359
2018-11-26,0.02542018348492829
2018-11-27,0.027046931858446505
2018-11-28,0.02817335210222592
2018-11-29,0.023003541109033715
2018-11-30,0.02708515275497031
2018-12-03,0.015129036334737805
2018-12-04,0.013847722156534348
2018-12-05,0.022226752924162332
2018-12-06,0.01953643609188921
2018-12-07,0.01629623861249016
2018-12-10,0.003922377129262217
2018-12-11,0.01209541624060781
2018-12-12,0.016484780038571123
2018-12-13,0.007869300137532287
2018-12-14,0.010722756391036342
2018-12-17,0.017626858952937252
2018-12-18,0.00696550141468727
2018-12-19,0.015961480386025295
2018-12-20,-0.0023995584811973836
2018-12-21,0.015989491033500225
2018-12-24,0.004573837684589466
2018-12-25,0.02541746459143482
2018-12-26,0.01082535603955917
2018-12-27,-0.031651783163469865
2018-12-28,-0.07588084173367102
2019-01-02,-0.08984301167285519
2019-01-03,-0.08735072533591312
2019-01-04,-0.08086101662026543
2019-01-07,-0.06507667510992227
2019-01-08,-0.06692742645560476
2019-01-09,-0.05341133734598405
2019-01-10,-0.05384613307729605
2019-01-11,-0.06394587557775325
2019-01-14,-0.07143743125440169
2019-01-15,-0.051483186692366234
2019-01-16,-0.06355272633064069
2019-01-17,-0.06740405207921618
2019-01-18,-0.054398205301620595
2019-01-21,-0.050347542280754165
2019-01-22,-0.06826250598447059
2019-01-23,-0.040415251422325826
2019-01-24,-0.04310864450480226
2019-01-25,-0.03539202261198257
2019-01-28,-0.047780697300345926
2019-01-29,-0.0295131249280432
2019-01-30,-0.03770912546671268
2019-01-31,-0.03204561445014842
2019-02-01,-0.012762954580276431
2019-02-11,-0.021451729645495368
2019-02-12,-0.018899717983349912
2019-02-13,-0.013040953965910047
2019-02-14,-0.020270669268516783
2019-02-15,-0.030731416212936444
2019-02-18,-0.0004567345992644578
2019-02-19,0.005067960062291432
2019-02-20,-0.016232517386529616
2019-02-21,-0.012177504856939636
2019-02-22,-0.009457510778517184
2019-02-25,-0.005994972360313357
2019-02-26,0.0006953546948079113
2019-02-27,0.0027953282443585713
2019-02-28,0.00883967371827473
2019-03-01,0.008040372949120599
2019-03-04,0.001409218399115529
2019-03-05,0.00834246161003925
2019-03-06,0.007763260262682606
2019-03-07,0.006115926870410793
2019-03-08,0.004825774227478055
2019-03-11,0.0003796387835751161
2019-03-12,0.010036617250614943
2019-03-13,0.0030903465844140873
2019-03-14,0.004769906159756136
2019-03-15,0.01160900946346459
2019-03-18,0.011483757635369213
2019-03-19,0.008861297572753397
2019-03-20,0.011377298993895349
2019-03-21,0.009172586131881592
2019-03-22,0.0084414236540888
2019-03-25,0.008821223408222828
2019-03-26,-0.00011474458204829147
2019-03-27,0.004894839650220854
2019-03-28,-0.0008379809997662024
2019-03-29,0.0007065419977772425
2019-04-01,-0.002486490143475635
2019-04-02,-0.0023421397285113207
2019-04-03,-0.007759017294120839
2019-04-04,-0.00878000217634193
2019-04-08,0.0005819159815945857
2019-04-09,-0.0013642589914178854
2019-04-10,-0.00018510076527349095
2019-04-11,0.01092600139887508
2019-04-12,0.005990232580013764
2019-04-15,0.009634089538515848
2019-04-16,0.010792022155165469
2019-04-17,0.005456554423485402
2019-04-18,0.008182836366632133
2019-04-19,0.010481700185634935
2019-04-22,0.005530383599222352
2019-04-23,0.004891600841907422
2019-04-24,0.010996466804305341
2019-04-25,0.005279545359216552
2019-04-26,0.005571709607600749
2019-04-29,0.01386339514226821
2019-04-30,0.01599992956116418
2019-05-06,0.017961039682802382
2019-05-07,0.014076207063552927
2019-05-08,0.0096350412846413
2019-05-09,0.004885559744695421
2019-05-10,0.011887763733685143
2019-05-13,0.021496644615690765
2019-05-14,0.013417469688868016
2019-05-15,0.008563375648176663
2019-05-16,0.010164778872427985
2019-05-17,0.007577760086053417
2019-05-20,0.008711852883380215
2019-05-21,0.0012214404494317738
2019-05-22,0.012020230696748395
2019-05-23,0.010934523748249145
2019-05-24,0.007227918668382259
2019-05-27,0.011717488249361585
2019-05-28,0.009546490519736876
2019-05-29,0.010426790756067623
2019-05-30,0.014611458813044223
2019-05-31,0.01186969536544541
2019-06-03,0.007053470456002617
2019-06-04,0.009989649639785513
2019-06-05,0.003529485958450637
2019-06-06,0.014436559340598384
2019-06-10,0.01492818500696097
2019-06-11,0.015875900500395515
2019-06-12,0.006686265845331947
2019-06-13,0.0063488945958090764
2019-06-14,0.0005320665319456241
2019-06-17,-0.004392214284343499
2019-06-18,-0.0056030857981841375
2019-06-19,0.0057031451126279345
2019-06-20,0.008041846144899202
2019-06-21,0.00969451854387108
2019-06-24,0.016442912017832705
2019-06-25,0.015611035716762662
2019-06-26,0.014647153081309608
2019-06-27,0.01620433982604006
2019-06-28,0.009080800735572853
2019-07-01,0.016778637622750732
2019-07-02,0.011885082641506908
2019-07-03,0.029576342564613303
2019-07-04,0.02601462994775368
2019-07-05,0.02271517366503496
2019-07-08,0.014592304381656002
2019-07-09,0.014006429245458168
2019-07-10,0.006093664525095018
2019-07-11,0.002367312927042304
2019-07-12,0.002320198353902972
2019-07-15,0.007840751627952652
2019-07-16,0.006478848138129052
2019-07-17,0.01678861348552131
2019-07-18,0.012585158669791256
2019-07-19,0.021453522028749963
2019-07-22,0.016623565543734384
2019-07-23,0.024845604741302457
2019-07-24,0.02111751605244247
2019-07-25,0.014986615915975198
2019-07-26,0.0014239615399317916
2019-07-29,-0.0034120759356993866
2019-07-30,-0.0019833662631758044
2019-07-31,-0.0041860036030381235
2019-08-01,0.0021403010560763353
2019-08-02,0.007882552035427544
2019-08-05,-0.0031633981532458305
2019-08-06,-0.008298859027818628
2019-08-07,-0.0013987794665295261
2019-08-08,0.0009715508090135522
2019-08-09,1.2839962314631359e-05
2019-08-12,-0.0022663427405366435
2019-08-13,-0.002725490890926309
2019-08-14,-0.0023820246618882976
2019-08-15,-0.003401908073196701
2019-08-16,-0.004494242418711117
2019-08-19,-0.0016984727916815393
2019-08-20,-0.004680010312170517
2019-08-21,-0.001581986508992335
2019-08-22,-0.007225761381272986
2019-08-23,-0.006887033529058704
2019-08-26,-0.005586722748057431
2019-08-27,-0.0021685434033381773
2019-08-28,0.00030011900842101535
2019-08-29,-0.003180157819781291
2019-08-30,-0.00846910635803099
2019-09-02,-0.0006461138056690404
2019-09-03,-0.004496964455537022
2019-09-04,-0.0005767090420434441
2019-09-05,0.0004825846563719766
2019-09-06,-0.006353562037766649
2019-09-09,-1.0681395329780428e-05
2019-09-10,0.0034797882841585727
2019-09-11,0.007613158762175895
2019-09-12,0.0045319651236394734
2019-09-16,0.009419862106441409
2019-09-17,0.0020755264827564054
2019-09-18,0.006676773817573638
2019-09-19,0.009604978713081944
2019-09-20,0.013860898906945036
2019-09-23,0.00011791279664546961
2019-09-24,0.0015625010634772694
2019-09-25,0.009826432250567507
2019-09-26,0.011798795771708226
2019-09-27,-0.0018806198548575806
2019-09-30,0.0005641502448732738
2019-10-08,0.00432612464968872
2019-10-09,0.008407871510401857
2019-10-10,0.004143802196543242
2019-10-11,0.006383159867391422
2019-10-14,0.003782539262919632
2019-10-15,0.007561435085880308
2019-10-16,0.013255086690036291
2019-10-17,0.01576191477018002
2019-10-18,0.028226008309570866
2019-10-21,0.020638104065327234
2019-10-22,0.04143146472288059
2019-10-23,0.026716760647546772
2019-10-24,0.02971688898556968
2019-10-25,0.04537689731777407
2019-10-28,0.0545822556703816
2019-10-29,0.05276026543991605
2019-10-30,0.05495690022836965
2019-10-31,0.06183179519316547
2019-11-01,0.04277438342455875
2019-11-04,0.03681896928585601
2019-11-05,0.03972559045756181
2019-11-06,0.046498231829074435
2019-11-07,0.032683186505997844
2019-11-08,0.03887785354314076
2019-11-11,-0.007980685511658245
2019-11-12,-0.010406332922154829
2019-11-13,0.01652903363216026
2019-11-14,0.014793360059546401
2019-11-15,0.02372375869346137
2019-11-18,0.029721626185748695
2019-11-19,0.0666900126670008
2019-11-20,0.046325639850911676
2019-11-21,0.05448227738100647
2019-11-22,0.07232715474095566
2019-11-25,0.07508346201695891
2019-11-26,0.07340617980635275
2019-11-27,0.10211640114206799
2019-11-28,0.08431785761957121
2019-11-29,0.060292160804599725
2019-12-02,0.07414603809192566
2019-12-03,0.05304433141796118
2019-12-04,0.07393459999452334
2019-12-05,0.07178509674975542
2019-12-06,0.07220361695614594
2019-12-09,0.08163207329230801
2019-12-10,0.08794661218753354
2019-12-11,0.09025725786136495
2019-12-12,0.0755210468581973
2019-12-13,0.08255133391260466
2019-12-16,0.0879082413367226
2019-12-17,0.09664754851698112
2019-12-18,0.09551760535616578
2019-12-19,0.10219058427274585
2019-12-20,0.08831988838107152
2019-12-23,0.08685537666016446
2019-12-24,0.09512925910651684
2019-12-25,0.08742913466022215
2019-12-26,0.07763511455996563
2019-12-27,0.0884941671650155
2019-12-30,0.09648394264229974
2019-12-31,0.09402788635263065
2020-01-02,0.09039517098495066
2020-01-03,0.08242257215988509
2020-01-06,0.07860957771157438
2020-01-07,0.07340055230011128
2020-01-08,0.06686255090934513
2020-01-09,0.05743019550891878
2020-01-10,0.050969460020448776
2020-01-13,0.04966632863626355
2020-01-14,0.05599292201015484
2020-01-15,0.042067059951316065
2020-01-16,0.043250312347953776
2020-01-17,0.04784422718022831
2020-01-20,0.04378352227369671
2020-01-21,0.039436859962795244
2020-01-22,0.037356753453322754
2020-01-23,0.04210126644961934
2020-02-03,0.03635870652979555
2020-02-04,0.046863286936218274
2020-02-05,0.037505958705091824
2020-02-06,0.050198829826552424
2020-02-07,0.05654795091644575
2020-02-10,0.059440524328498515
2020-02-11,0.04390289850263517
2020-02-12,0.047961352457809435
2020-02-13,0.04797635237307067
2020-02-14,0.05760270271439168
2020-02-17,0.06034676728553817
2020-02-18,0.04380354010804049
2020-02-19,0.04147641669617066
2020-02-20,0.031472208586365215
2020-02-21,0.028822782065749994
2020-02-24,0.02231187959995385
2020-02-25,0.01273041642587535
2020-02-26,0.01966432279132936
2020-02-27,0.01740853628307605
2020-02-28,0.01542838367964912
2020-03-02,0.02254145934246727
2020-03-03,0.01938194533831303
2020-03-04,0.02015196933701828
2020-03-05,0.015697716886364572
2020-03-06,0.011140874000192202
2020-03-09,0.014556930208714201
2020-03-10,0.0024579635475865716
2020-03-11,0.010115257593790884
2020-03-12,0.007644787446490695
2020-03-13,-0.009663952330740879
2020-03-16,0.008656724456519146
2020-03-17,0.008573110612573126
2020-03-18,-0.0016158461036203248
2020-03-19,-0.016728760090350472
2020-03-20,-0.00244295569031823
2020-03-23,0.008830330978625012
2020-03-24,0.033278652603137227
2020-03-25,0.03684704022887188
2020-03-26,0.03989060788529647
2020-03-27,0.04992226586688452
2020-03-30,0.06725364965420844
2020-03-31,0.058305842976513006
2020-04-01,0.035369679333993376
2020-04-02,0.025035790355232013
2020-04-03,0.004036813589720717
2020-04-07,0.011566292791439503
2020-04-08,0.011311028263624845
2020-04-09,0.007293070642759941
2020-04-10,0.026674249611405687
2020-04-13,0.030350086239119778
2020-04-14,0.03043043100057763
2020-04-15,0.02302526433554214
2020-04-16,0.012844688351226596
2020-04-17,0.01946174033298717
2020-04-20,-0.0020338769581936533
2020-04-21,-0.00536475186489177
2020-04-22,-0.008827519570403453
2020-04-23,-0.0022817233642042634
2020-04-24,0.009939178012288385
2020-04-27,0.016991259277670367
2020-04-28,0.012100921277584997
2020-04-29,0.014491163119097011
2020-04-30,0.033355106207408614
2020-05-06,0.023334523457949008
2020-05-07,0.02084627347258655
2020-05-08,0.0133166595565955
2020-05-11,0.04102732493623926
2020-05-12,0.00530199433806533
2020-05-13,-0.0020300674894282444
2020-05-14,-0.007880922416219294
2020-05-15,-0.010561621036343727
2020-05-18,-0.008571279664714826
2020-05-19,-0.023470012682164476
2020-05-20,-0.011429683498631521
2020-05-21,-0.03365019467990232
2020-05-22,-0.03638676897024848
2020-05-25,-0.05194505226564056
2020-05-26,-0.04384676698653492
2020-05-27,-0.026454786301319894
2020-05-28,-0.02750862687226502
2020-05-29,-0.018315362735829066
2020-06-01,-0.01901554243377815
2020-06-02,-0.005602944336250609
2020-06-03,-0.009281652711260469
2020-06-04,-0.016737072097714384
2020-06-05,-0.02027251596646243
2020-06-08,-0.011062434371666707
2020-06-09,-0.009753086268588673
2020-06-10,-0.0291049335055365
2020-06-11,-0.03472421333630829
2020-06-12,-0.047550693801705846
2020-06-15,-0.04889633094720579
2020-06-16,-0.044443610989810714
2020-06-17,-0.03947084168117765
2020-06-18,-0.03461556755479664
2020-06-19,-0.039661148666391255
2020-06-22,-0.05784107165487404
2020-06-23,-0.07041364762694738
2020-06-24,-0.07679624624258678
2020-06-29,-0.08605910286890109
2020-06-30,-0.07979538978429684
2020-07-01,-0.05783156762503802
2020-07-02,-0.035935169776619466
2020-07-03,-0.030698651193769293
2020-07-06,-0.02189245304845688
2020-07-07,-0.02688891495040943
2020-07-08,-0.02690560454759825
2020-07-09,-0.03412978314666047
2020-07-10,-0.03569784018576367
2020-07-13,-0.02972041556783482
2020-07-14,-0.034205061765556384
2020-07-15,-0.03328992688801825
2020-07-16,-0.020288094060150898
2020-07-17,-0.01661730940514675
2020-07-20,-0.0092242900580082
2020-07-21,-0.011605186587489772
2020-07-22,-0.008463021947014359
2020-07-23,-0.017513175897741633
2020-07-24,-0.012953874170275605
2020-07-27,-0.009350677251225206
2020-07-28,-0.006407700399294558
2020-07-29,-0.0035430149024794602
2020-07-30,-0.005663506098143519
2020-07-31,-0.008570468396587181
2020-08-03,-0.018185757115124598
2020-08-04,-0.015004791748089137
2020-08-05,-0.022311503974833707
2020-08-06,-0.02790282290545533
2020-08-07,-0.025238217958499287
2020-08-10,-0.027236807348632923
2020-08-11,-0.03603282603647616
2020-08-12,-0.023489107155617625
2020-08-13,-0.019562306103650125
2020-08-14,-0.02788356293406967
2020-08-17,-0.04188348766106273
2020-08-18,-0.04608522178113285
2020-08-19,-0.02630519673043756
2020-08-20,-0.030250211852795816
2020-08-21,-0.0380252904126282
2020-08-24,-0.046717742926800074
2020-08-25,-0.05538996475053871
2020-08-26,-0.04548901868755534
2020-08-27,-0.0612081832534357
2020-08-28,-0.06807990771700398
2020-08-31,-0.05892583870266997
2020-09-01,-0.05628971228824463
2020-09-02,-0.05779879950696251
2020-09-03,-0.04959472512510883
2020-09-04,-0.04492967895220369
2020-09-07,-0.02846447203463122
2020-09-08,-0.028202902532315638
2020-09-09,-0.013266799595597241
2020-09-10,-0.024115538871249592
2020-09-11,-0.012020101011190526
2020-09-14,-0.011342971071885997
2020-09-15,-0.014080875775891122
2020-09-16,-0.0026020625018729968
2020-09-17,-0.011097032049774531
2020-09-18,-0.0005854879858294137
2020-09-21,0.01048610057270035
2020-09-22,0.0016964164742334087
2020-09-23,-0.007207993145538244
2020-09-24,-0.0124312710102744
2020-09-25,-0.0160182599917537
2020-09-28,-0.012741308283763145
2020-09-29,-0.012173445747648587
2020-09-30,-0.010308620012009634
2020-10-09,-0.0040063534143474355
2020-10-12,-0.0003557097699956463
2020-10-13,-0.005811854452656626
2020-10-14,-0.02519432944443073
2020-10-15,-0.024798044887067813
2020-10-16,-0.02311436568760608
2020-10-19,-0.014767983713543459
2020-10-20,-0.03393414773399052
2020-10-21,-0.018587223911077297
2020-10-22,-0.04350151477359761
2020-10-23,-0.011595953776822224
2020-10-26,-0.049080728422674344
2020-10-27,-0.03995974198909159
2020-10-28,-0.030155999049969295
2020-10-29,-0.03115353525682789
2020-10-30,-0.02670211979185437
2020-11-02,-0.029015194975737527
2020-11-03,-0.009498634692259464
2020-11-04,-0.014381214582786336
2020-11-05,-0.0039762590125130975
2020-11-06,-0.0008053737377779202
2020-11-09,-0.0018894515879357698
2020-11-10,0.0026810045756477524
2020-11-11,0.029694279359250647
2020-11-12,0.030377622658808702
2020-11-13,0.025803301731971005
2020-11-16,0.048157601838958904
2020-11-17,0.05886409970321618
2020-11-18,0.03671598248311983
2020-11-19,0.028489129670888097
2020-11-20,-0.002752923257503967
2020-11-23,0.004732159685992762
2020-11-24,0.0007928468415609111
2020-11-25,-0.012988767932483158
2020-11-26,0.009359287364386508
2020-11-27,0.01708424682356858
2020-11-30,0.005845685747093668
2020-12-01,0.0025724679502651462
2020-12-02,-0.00682495843165495
2020-12-03,-0.01591050775650346
2020-12-04,-0.025669479671334296
2020-12-07,-0.03484245665291749
2020-12-08,-0.03353637871018846
2020-12-09,-0.030455932420880634
2020-12-10,-0.03965108119959386
2020-12-11,-0.045369790873162855
2020-12-14,-0.050619133830215046
2020-12-15,-0.04857723705972662
2020-12-16,-0.05189543980188355
2020-12-17,-0.03984186218983116
2020-12-18,-0.040481845814871534
2020-12-21,-0.042592103937887656
2020-12-22,-0.03843991348346187
2020-12-23,-0.03318097058226667
2020-12-24,-0.037822022561420116
2020-12-25,-0.03914323787208289
2020-12-28,-0.046984796299998445
2020-12-29,-0.048131883073459884
2020-12-30,-0.050236753372757015
2020-12-31,-0.04650465225861915
2021-01-04,-0.06040086163876879
2021-01-05,-0.07763093003480169
2021-01-06,-0.07451460386080463
2021-01-07,-0.0906869136514047
2021-01-08,-0.08845821462965028
2021-01-11,-0.07371245193409767
2021-01-12,-0.08320512851147241
2021-01-13,-0.0839420819273379
2021-01-14,-0.08395040195040993
2021-01-15,-0.0744487263671699
2021-01-18,-0.07589892105975694
2021-01-19,-0.05311606580340118
2021-01-20,-0.07387956264474221
2021-01-21,-0.06600653700378499
2021-01-22,-0.08532431241992311
2021-01-25,-0.09362752514105302
2021-01-26,-0.09061537891263483
2021-01-27,-0.08607555039456774
2021-01-28,-0.07724970496891109
2021-01-29,-0.0944151049851022
2021-02-01,-0.10557326243633894
2021-02-02,-0.12513724533733056
2021-02-03,-0.11262070665631838
2021-02-04,-0.11910895054924146
2021-02-05,-0.10271715086122267
2021-02-08,-0.09433233818681018
2021-02-09,-0.08948095317139981
2021-02-10,-0.09527464237405782
2021-02-18,-0.05827235855685854
2021-02-19,-0.04354759518401962
2021-02-22,-0.02946193230392027
2021-02-23,-0.0242908590873352
2021-02-24,-0.017140471678307234
2021-02-25,0.003330998854851207
2021-02-26,-0.00047961357642519603
2021-03-01,-0.003184052992057547
2021-03-02,0.0037762608378080487
2021-03-03,0.008722936522366748
2021-03-04,0.020812676639917586
2021-03-05,0.011097218695753537
2021-03-08,0.04463008033120415
2021-03-09,0.03616422679932929
2021-03-10,0.0160041715090639
2021-03-11,0.014119798478229126
2021-03-12,0.025555841428193005
2021-03-15,0.03781421435308997
2021-03-16,0.03436827655824691
2021-03-17,0.021058581101860156
2021-03-18,0.015268697770060211
2021-03-19,0.031346869011349435
2021-03-22,0.02483866051548036
2021-03-23,0.02081197624612184
2021-03-24,0.017507044359496723
2021-03-25,0.018830759940085665
2021-03-26,0.018501166727057865
2021-03-29,0.028671042373873808
2021-03-30,0.03115228770810355
2021-03-31,0.03840997228807317
2021-04-01,0.03609809068620209
2021-04-02,0.029390694373849766
2021-04-06,0.037366300286063484
2021-04-07,0.036365202110908226
2021-04-08,0.04252453882178389
2021-04-09,0.05590117733492006
2021-04-12,0.061071571668407584
2021-04-13,0.06590572099026183
2021-04-14,0.052751687293346644
2021-04-15,0.047151136486409354
2021-04-16,0.08279460311713278
2021-04-19,0.05938803490884095
2021-04-20,0.060593245964773564
2021-04-21,0.05886753253023325
2021-04-22,0.0635225354383687
2021-04-23,0.051186984834444754
2021-04-26,0.06131343713333628
2021-04-27,0.0588694289172464
2021-04-28,0.050471799353559985
2021-04-29,0.06573151055963937
2021-04-30,0.06786819250904091
2021-05-06,0.06882920701922891
2021-05-07,0.0754766685848203
2021-05-10,0.07091863237081641
2021-05-11,0.07854829819377701
2021-05-12,0.08425881455082132
2021-05-13,0.08318644547178636
2021-05-14,0.07346722890985784
2021-05-17,0.04069310953372911
2021-05-18,0.06340569929851592
2021-05-19,0.06343620862532105
2021-05-20,0.06748462856951398
2021-05-21,0.06642519460551037
2021-05-24,0.05128928493304502
2021-05-25,0.050154821060990826
2021-05-26,0.05842967065294229
2021-05-27,0.05341981452975458
2021-05-28,0.05934976559035931
2021-05-31,0.04979700112779594
2021-06-01,0.055000202498908995
2021-06-02,0.06446019904371901
2021-06-03,0.05063848162962862
2021-06-04,0.0565058844407392
2021-06-07,0.05518746935291878
2021-06-08,0.04603528711224729
2021-06-09,0.03845080251897785
2021-06-10,0.020018193263117986
2021-06-11,0.03413109045398502
2021-06-15,0.03522902811650796
2021-06-16,0.04075480071321002
2021-06-17,0.03955688031845468
2021-06-18,0.018007779123254738
2021-06-21,0.012672946391333869
2021-06-22,0.025987163654368862
2021-06-23,0.018091910393073077
2021-06-24,0.021277605895812707
2021-06-25,0.015492647530309822
2021-06-28,0.010102498117261768
2021-06-29,0.008640201786296663
2021-06-30,0.011195519742726827
2021-07-01,0.02496051004930946
2021-07-02,0.024325761289570466
2021-07-05,0.01556486278940267
2021-07-06,0.018507517800727732
2021-07-07,0.010630650877560249
2021-07-08,0.0012505595675322348
2021-07-09,0.0040977217325434655
2021-07-12,0.0033405094424786078
2021-07-13,0.008489907619590138
2021-07-14,0.012267206500607732
2021-07-15,0.010358702469809689
2021-07-16,0.008530172638050709
2021-07-19,-0.0022693186742893407
2021-07-20,-0.006568689587750099
2021-07-21,-0.013499644825836397
2021-07-22,-0.0026213936234810113
2021-07-23,-0.004820907118374764
2021-07-26,-0.01446441838180413
2021-07-27,-0.011800833138484873
2021-07-28,-0.014163821693985702
2021-07-29,-0.02743316106141878
2021-07-30,-0.02727449662499781
2021-08-02,-0.02908142983045143
2021-08-03,-0.021198132231225485
2021-08-04,-0.031961122105059935
2021-08-05,-0.03294269450638107
2021-08-06,-0.026412306624009677
2021-08-09,-0.014911548225534123
2021-08-10,-0.010330370473397086
2021-08-11,-0.0152512026858673
2021-08-12,-0.021793226800705626
2021-08-13,-0.024681826173465673
2021-08-16,-0.005803916252739273
2021-08-17,-0.006381012954715822
2021-08-18,-0.010780850629933024
2021-08-19,-0.009767481561120006
2021-08-20,-0.00536721244782247
2021-08-23,-0.012595777547163067
2021-08-24,-0.01573785601082168
2021-08-25,-0.00785122803950211
2021-08-26,-0.002407370099300244
2021-08-27,-0.0010788508668603987
2021-08-30,-0.012819999920942356
2021-08-31,-0.00619764419979027
2021-09-01,0.015724179848214018
2021-09-02,0.021323677775406485
2021-09-03,0.02256371074883628
2021-09-06,0.022555195985247162
2021-09-07,0.020791102139312283
2021-09-08,0.03349085758793922
2021-09-09,0.018073770947809334
2021-09-10,0.021134157962465462
2021-09-13,0.018109079091087717
2021-09-14,0.007870775646037657
2021-09-15,0.0009082652063542229
2021-09-16,0.001615491475379727
2021-09-17,0.0004362257784501197
2021-09-22,-0.008306127285362936
2021-09-23,-0.007471078929604036
2021-09-24,-0.014482373986085149
2021-09-27,-0.0031690142457793235
2021-09-28,0.0014980641215401385
2021-09-29,0.007857666968237803
2021-09-30,0.007140034828357278
2021-10-08,-0.0046279460286992626
2021-10-11,-0.004668264736451391
2021-10-12,-0.003854278881383194
2021-10-13,0.0140105658503391
2021-10-14,0.00776504676775569
2021-10-15,-0.005414333110606243
2021-10-18,-0.009514792362400527
2021-10-19,-0.006084950678235564
2021-10-20,-0.003602787429644174
2021-10-21,-0.012962546815220851
2021-10-22,-0.006671372863024928
2021-10-25,-0.007765519952316734
2021-10-26,-0.011529808013549508
2021-10-27,-0.02534447503205084
2021-10-28,-0.008651600592600606
2021-10-29,-0.002255531390918695
2021-11-01,0.002540242990842774
2021-11-02,0.016524320778487873
2021-11-03,0.021680366731270835
2021-11-04,0.018597523315653397
2021-11-05,0.017093635448252903
2021-11-08,-0.009109782284191369
2021-11-09,-0.018301148052911137
2021-11-10,-0.014186246507684748
2021-11-11,-0.011861679688014715
2021-11-12,-0.011008802214230493
2021-11-15,0.006418871436980923
2021-11-16,0.00487033035407055
2021-11-17,0.008437786834491444
2021-11-18,0.004468360040199931
2021-11-19,0.00958065362087357
2021-11-22,0.0082752291638922
2021-11-23,0.01278255463326644
2021-11-24,0.031957695720214056
2021-11-25,0.03340765115693369
2021-11-26,0.027499757954392808
2021-11-29,0.01451322691483007
2021-11-30,0.017578752580926497
2021-12-01,0.01834957132489816
2021-12-02,0.013625316788476116
2021-12-03,0.02133580039984316
2021-12-06,0.022557168049134296
2021-12-07,0.02493717147964182
2021-12-08,0.03335493273513741
2021-12-09,0.04100663581445582
2021-12-10,0.05013194970384159
2021-12-13,0.062351994678113004
2021-12-14,0.04835828952623955
2021-12-15,0.02513454226721669
2021-12-16,0.01864325853946959
2021-12-17,0.012816597056697854
2021-12-20,0.0022903155275193904
2021-12-21,0.0008569885468477784
2021-12-22,0.004712868500071257
2021-12-23,0.024423502930421837
2021-12-24,0.019285711923974394
2021-12-27,0.021323717770927425
2021-12-28,0.00933379931743926
2021-12-29,0.004470743901853244
2021-12-30,-0.004400450786573459
2021-12-31,0.003371171476788948
2022-01-04,0.007781326780961925
2022-01-05,0.010095821300315472
2022-01-06,-0.0005911415731086889
2022-01-07,0.018106450528658252
2022-01-10,0.02164024398270864
2022-01-11,0.02728755079561561
2022-01-12,0.029431294865721463
2022-01-13,0.030374283984008932
2022-01-14,0.035216812811805456
2022-01-17,0.02862691195099787
2022-01-18,0.025990815890181346
2022-01-19,0.02122363308936881
2022-01-20,0.03133121997595295
2022-01-21,0.027827486005929464
2022-01-24,0.028596587046544386
2022-01-25,0.03057565307973012
2022-01-26,0.016460685679450054
2022-01-27,0.00801579166158961
2022-01-28,0.01928572678660509
2022-02-07,0.03529014672721528
2022-02-08,0.03312452634084717
2022-02-09,0.035541742107175714
2022-02-10,0.03804669405324709
2022-02-11,0.03792246978580645
2022-02-14,0.03137079290946376
2022-02-15,0.024843455041002854
2022-02-16,0.034568635984866106
2022-02-17,0.03831720617076509
2022-02-18,0.032703860485689115
2022-02-21,0.033175395190100335
2022-02-22,0.02987829656010013
2022-02-23,0.026894776205239987
2022-02-24,0.02765375504431304
2022-02-25,0.0245141899918096
2022-02-28,0.017352708192503646
2022-03-01,0.01929143929166556
2022-03-02,0.017722159252548275
2022-03-03,0.019639297048479956
2022-03-04,0.020821309489987304
2022-03-07,0.006710629680284692
2022-03-08,-0.008332841000755247
2022-03-09,-0.015479457505183751
2022-03-10,-0.012631911341183143
2022-03-11,-0.006606614482269148
2022-03-14,-0.021935103063511176
2022-03-15,-0.05408795087903963
2022-03-16,-0.02885332346069202
2022-03-17,-0.0031685863905500343
2022-03-18,-0.0011694188458737428
2022-03-21,-0.010831695317547367
2022-03-22,-0.004017800781546909
2022-03-23,0.006705783418845136
2022-03-24,-0.0029022572506618646
2022-03-25,-0.010259353037941815
2022-03-28,-0.006125958641699243
2022-03-29,-0.0049966369439752925
2022-03-30,-0.0030711836303528306
2022-03-31,-0.0011088640338475786
2022-04-01,0.007684768448044006
2022-04-06,0.016177698875832976
2022-04-07,0.009499735714357652
2022-04-08,-0.0030955889767570535
2022-04-11,-0.012283589789950977
2022-04-12,-0.0036373620925462397
2022-04-13,0.005126578241872931
2022-04-14,0.010955446742084849
2022-04-15,0.0042617128159263135
2022-04-18,0.011893536627522155
2022-04-19,0.0015114069714003767
2022-04-20,-0.0035292219257645197
2022-04-21,-0.0017599373672172597
2022-04-22,-0.007079210273607486
2022-04-25,-0.02005913493825709
2022-04-26,-0.0007576749870688848
2022-04-27,0.005694497884448688
2022-04-28,0.01271320103013135
2022-04-29,0.03077296361748192
2022-05-05,0.031619636403800416
2022-05-06,0.023231409522934884
2022-05-09,0.02323225891244901
2022-05-10,0.014726330933373631
2022-05-11,0.013478628602650443
2022-05-12,0.005288413084497512
2022-05-13,0.01924932515252655
2022-05-16,0.032938968361415674
2022-05-17,0.04437486904842536
2022-05-18,0.03500612235315006
2022-05-19,0.020145439495459154
2022-05-20,0.028811006006037004
2022-05-23,0.03155940143098259
2022-05-24,0.02104706837290818
2022-05-25,0.03096051320332807
2022-05-26,0.023387929247781186
2022-05-27,0.03257711374918608
2022-05-30,0.037799435553760696
2022-05-31,0.042569120473407204
2022-06-01,0.03415669506044492
2022-06-02,0.023349222749182455
2022-06-06,0.02282984696163715
2022-06-07,0.02400883666059611
2022-06-08,0.018572116515096083
2022-06-09,0.02484050539861475
2022-06-10,0.01984349429151817
2022-06-13,0.015919692695012727
2022-06-14,0.023124298565799728
2022-06-15,0.036694354778883984
2022-06-16,0.0391278268841964
2022-06-17,0.026524691919593057
2022-06-20,0.03361612909583192
2022-06-21,0.040231069311115024
2022-06-22,0.032815424448398425
2022-06-23,0.020760927546131666
2022-06-24,0.019245718168900028
2022-06-27,0.025576468367439195
2022-06-28,0.02016470457718629
2022-06-29,0.02486100090464155
2022-06-30,0.017770360966293988
2022-07-01,0.016696560269435334
2022-07-04,0.009003890089197233
2022-07-05,-0.002280846123017821
2022-07-06,0.004298595942779204
2022-07-07,-0.005676437475100549
2022-07-08,-0.005906813901404712
2022-07-11,0.0020894591205066065
2022-07-12,0.0009678499990755512
2022-07-13,-0.00287951528909694
2022-07-14,-0.010612462379741353
2022-07-15,-0.01588769606309215
2022-07-18,-0.012469552826028837
2022-07-19,-0.008026548786476365
2022-07-20,-0.004499606155975222
2022-07-21,-0.004365106139806535
2022-07-22,0.003325696077872073
2022-07-25,0.003571993450939337
2022-07-26,0.00284447495195006
2022-07-27,-0.01116644432235503
2022-07-28,-0.01626498243368142
2022-07-29,-0.014204770342765224
2022-08-01,-0.020091589325947748
2022-08-02,-0.023591302870215013
2022-08-03,-0.013909521790743687
2022-08-04,-0.004551484401166386
2022-08-05,0.0003140066820976062
2022-08-08,-0.004531523017180572
2022-08-09,-0.008818911650143368
2022-08-10,-0.016068720337606465
2022-08-11,-0.024038039279091067
2022-08-12,-0.026744055139493267
2022-08-15,-0.03501366760764552
2022-08-16,-0.04552275167447198
2022-08-17,-0.04651258732625243
2022-08-18,-0.05562691497175955
2022-08-19,-0.04242613179316564
2022-08-22,-0.05172273130587102
2022-08-23,-0.05326355577173278
2022-08-24,-0.055722238436119176
2022-08-25,-0.04849508130214456
2022-08-26,-0.04451770344745248
2022-08-29,-0.052644706680712645
2022-08-30,-0.048755343657241976
2022-08-31,-0.034509945832440075
2022-09-01,-0.03759442813962332
2022-09-02,-0.05653205321972571
2022-09-05,-0.05153147028828395
2022-09-06,-0.053307025794635754
2022-09-07,-0.06321907820421056
2022-09-08,-0.06556326104818692
2022-09-09,-0.05707543609450387
2022-09-13,-0.0595897534349017
2022-09-14,-0.06276304668079385
2022-09-15,-0.052742743686360186
2022-09-16,-0.06423719468537262
2022-09-19,-0.06564201601484143
2022-09-20,-0.06425609342001357
2022-09-21,-0.07125977198937063
2022-09-22,-0.09498708897371003
2022-09-23,-0.10367073361777951
2022-09-26,-0.09310904010278262
2022-09-27,-0.07779576119935552
2022-09-28,-0.0831513155817471
2022-09-29,-0.08990277736073791
2022-09-30,-0.08832843236245268
2022-10-10,-0.10496766854860365
2022-10-11,-0.1259896455521958
2022-10-12,-0.12126213772555461
2022-10-13,-0.11544877671803216
2022-10-14,-0.11189114136514262
2022-10-17,-0.11207378230092968
2022-10-18,-0.1080658115619613
2022-10-19,-0.10481453464225002
2022-10-20,-0.10889115638068309
2022-10-21,-0.10823308547324395
2022-10-24,-0.1301437650115869
2022-10-25,-0.12631352082862585
2022-10-26,-0.11848703323337824
2022-10-27,-0.10641906148908863
2022-10-28,-0.11164454353950648
2022-10-31,-0.10664675514489677
2022-11-01,-0.08066088672542167
2022-11-02,-0.07909102596161818
2022-11-03,-0.07703606098389124
2022-11-04,-0.06543316661954154
2022-11-07,-0.0644940094281674
2022-11-08,-0.0559721576938997
2022-11-09,-0.05701771270845292
2022-11-10,-0.05876130953680028
2022-11-11,-0.046989313977954646
2022-11-14,-0.04000129457914839
2022-11-15,-0.03643040889441175
2022-11-16,-0.03828217440563147
2022-11-17,-0.027294451315403888
2022-11-18,-0.035008140180734004
2022-11-21,-0.0338006027505989
2022-11-22,-0.023193053698318755
2022-11-23,-0.022809223532241407
2022-11-24,-0.02358586960405691
2022-11-25,-0.019152763422508927
2022-11-28,-0.021988274135933683
2022-11-29,-0.02692769502123725
2022-11-30,-0.03023661870910703
2022-12-01,-0.02425379436645419
2022-12-02,-0.022638361642988006
2022-12-05,-0.019252901132296718
2022-12-06,-0.016193808830807933
2022-12-07,-0.016730124520742472
2022-12-08,-0.02425690309486536
2022-12-09,-0.026080062626096575
2022-12-12,-0.02381634286153956
2022-12-13,-0.025698993352771485
2022-12-14,-0.022112524155753082
2022-12-15,-0.020549114941131895
2022-12-16,-0.02116687956058359
2022-12-19,-0.027531675200930427
2022-12-20,-0.029286759157652456
2022-12-21,-0.03705658405401991
2022-12-22,-0.04670148651938435
2022-12-23,-0.049441768493695595
2022-12-26,-0.041320058251690384
2022-12-27,-0.03920591458482567
2022-12-28,-0.04937033084714529
2022-12-29,-0.0499200328812037
2022-12-30,-0.05307747301775052
2023-01-03,-0.047913486242503155
2023-01-04,-0.05407872872457986
2023-01-05,-0.05083637727019387
2023-01-06,-0.04284693446387469
2023-01-09,-0.04567124762951032
2023-01-10,-0.04344970969367656
2023-01-11,-0.04106857901961761
2023-01-12,-0.04301420203047183
2023-01-13,-0.0471087966951482
2023-01-16,-0.03745060334418229
2023-01-17,-0.03277207071304237
2023-01-18,-0.03464638968007739
2023-01-19,-0.034475646701753376
2023-01-20,-0.03317429608528559
2023-01-30,-0.03453195149075932
2023-01-31,-0.03691787832520426
2023-02-01,-0.040244629805269334
2023-02-02,-0.04621329169489409
2023-02-03,-0.04470379383409736
2023-02-06,-0.040122877765039755
2023-02-07,-0.03599799922919514
2023-02-08,-0.04210834092085699
2023-02-09,-0.03890206289584106
2023-02-10,-0.03218360089415907
2023-02-13,-0.03263294889187242
2023-02-14,-0.02689611280593394
2023-02-15,-0.023144119750151404
2023-02-16,-0.022989203915175966
2023-02-17,-0.022896170187644258
2023-02-20,-0.015489178246599126
2023-02-21,-0.003078703292154903
2023-02-22,-0.007864790622767372
2023-02-23,-0.003269304620242247
2023-02-24,0.003985298351481505
2023-02-27,0.014529642807907377
2023-02-28,0.013686680894075997
2023-03-01,0.022469663674787484
2023-03-02,0.02182116757030272
2023-03-03,0.03469655500777538
2023-03-06,0.03520171672307474
2023-03-07,0.042458021227202554
2023-03-08,0.039292982723156435
2023-03-09,0.045143127921810126
2023-03-10,0.043611005957909295
2023-03-13,0.043785883528807634
2023-03-14,0.040508480938544186
2023-03-15,0.050818022856509076
2023-03-16,0.047681066420689866
2023-03-17,0.0321431614024721
2023-03-20,0.03637267297996791
2023-03-21,0.04816940282767873
2023-03-22,0.05352163478363983
2023-03-23,0.044166899495216926
2023-03-24,0.030944704186689147
2023-03-27,0.0329094437086335
2023-03-28,0.03432285567946305
2023-03-29,0.03628291381360296
2023-03-30,0.037774086584345924
2023-03-31,0.022427796389011233
2023-04-03,0.012207464679728122
2023-04-04,0.0052084241485465185
2023-04-06,0.006439174766956449
2023-04-07,0.004144223645437012
2023-04-10,0.010582052802532313
2023-04-11,0.004550236756111811
2023-04-12,-0.017630576627535387
2023-04-13,-0.00738147232677757
2023-04-14,0.002113161664227335
2023-04-17,0.011090633027022255
2023-04-18,0.004822820922571726
2023-04-19,0.002110771359645436
2023-04-20,-0.022816302649233178
2023-04-21,-0.0137739363800575
2023-04-24,-0.022821277623574093
2023-04-25,-0.0339739099550984
2023-04-26,-0.022226639314269225
2023-04-27,-0.020813920926152626
2023-04-28,-0.038585627127472155
2023-05-04,-0.04058317989045274
2023-05-05,-0.029723768337553073
2023-05-08,-0.03255083325268947
2023-05-09,-0.03801598056419141
2023-05-10,-0.02778261956217124
2023-05-11,-0.023729169352072626
2023-05-12,-0.012321480661941962
2023-05-15,-0.011781650391704035
2023-05-16,-0.008301803113233927
2023-05-17,-0.011959879866706014
2023-05-18,-0.015508388574325637
2023-05-19,-0.013376329380438545
2023-05-22,-0.007432918264734387
2023-05-23,-0.0013798476177456897
2023-05-24,-0.0009348228884747782
2023-05-25,-0.003011184983690414
2023-05-26,-0.007460992435546477
2023-05-29,-0.017180717980336595
2023-05-30,-0.03278440660566008
2023-05-31,-0.03762229898436635
2023-06-01,-0.03998929178432606
2023-06-02,-0.020798825244369882
2023-06-05,-0.014959886101158892
2023-06-06,-0.017016039824930242
2023-06-07,-0.0139559606193591
2023-06-08,-0.017596567872251282
2023-06-09,-0.021895156527812806
2023-06-12,-0.019384517421333878
2023-06-13,-0.021321388176518748
2023-06-14,-0.020631163808591924
2023-06-15,-0.013756044604021453
2023-06-16,-0.017934765635813026
2023-06-19,-0.021567624797636346
2023-06-20,-0.030681265875160457
2023-06-21,-0.03509377438054418
2023-06-26,-0.03140256013932306
2023-06-27,-0.03190314920387846
2023-06-28,-0.027791240616143034
2023-06-29,-0.036202063133557234
2023-06-30,-0.029902850499852307
2023-07-03,-0.027451615761845773
2023-07-04,-0.023491739994582532
2023-07-05,-0.025182138413796462
2023-07-06,-0.026819706772706606
2023-07-07,-0.023485681838239084
2023-07-10,-0.017432881415885428
2023-07-11,-0.01672258315980501
2023-07-12,-0.014995227250606352
2023-07-13,-0.012380549739367988
2023-07-14,-0.02075583992105314
2023-07-17,-0.02316218422722474
2023-07-18,-0.01972463744927974
2023-07-19,-0.012370738141898083
2023-07-20,-0.008126924123650181
2023-07-21,-0.006174111750307951
2023-07-24,-0.006617900528880755
2023-07-25,-0.0011397214625583768
2023-07-26,0.0068242232764929855
2023-07-27,0.00023640098251362374
2023-07-28,0.006101563684661304
2023-07-31,0.003450025286252892
2023-08-01,-0.00024693945336226597
2023-08-02,0.0008037554503561861
2023-08-03,0.011093508966851226
2023-08-04,0.012860093304290846
2023-08-07,0.014979408318214572
2023-08-08,0.01521500939704827
2023-08-09,0.018042469758364398
2023-08-10,0.016324298735447038
2023-08-11,0.016999722459239155
2023-08-14,0.015192246836714628
2023-08-15,0.010925274246123065
2023-08-16,0.017890566490422893
2023-08-17,0.01121365182921269
2023-08-18,0.009311388040016196
2023-08-21,0.008300759621525215
2023-08-22,0.0037217148840469304
2023-08-23,0.0028585388069094046
2023-08-24,0.002278177670120382
2023-08-25,0.004975754374702265
2023-08-28,-0.002856499539421839
2023-08-29,0.003974999759585943
2023-08-30,0.0017541366691850371
2023-08-31,0.0059370817307604
2023-09-01,0.01005806313295933
2023-09-04,0.010846754414605614
2023-09-05,0.010047111019009888
2023-09-06,0.006743354235790949
2023-09-07,0.013336897950996338
2023-09-08,0.012292633975554683
2023-09-11,0.010813153383189354
2023-09-12,0.010684657750372431
2023-09-13,0.013137022477606987
2023-09-14,0.011268324334328603
2023-09-15,0.016474127659658888
2023-09-18,0.021884232005783204
2023-09-19,0.017241452412056366
2023-09-20,0.019233325954321867
2023-09-21,0.016766111425424182
2023-09-22,0.007575217807630277
2023-09-25,0.009904708648201872
2023-09-26,0.0034248932787484393
2023-09-27,0.010548912831205015
2023-09-28,0.006839055606239763
2023-10-09,-0.004829618991677692
2023-10-10,0.001892945842359571
2023-10-11,0.004138840305403228
2023-10-12,0.007046468483024412
2023-10-13,0.0023289273529280563
2023-10-16,-0.003558232580815543
2023-10-17,-0.005275595475395328
2023-10-18,-0.004494044815490761
2023-10-19,-0.01100337224550113
2023-10-20,-0.004675767058283924
2023-10-23,-0.0034586094192094533
2023-10-24,0.003264318663060581
2023-10-25,0.008188488088665423
2023-10-26,0.010110537450945499
2023-10-27,0.01473982184426939
2023-10-30,0.014984519093467152
2023-10-31,0.007733269015377658
2023-11-01,0.003912635709085448
2023-11-02,-0.005714016963169477
2023-11-03,-0.010906101336937243
2023-11-06,-0.014815684591136039
2023-11-07,-0.019200160742083597
2023-11-08,-0.015458727039671272
2023-11-09,-0.0160897201660124
2023-11-10,-0.022272601886505233
2023-11-13,-0.029945058004010525
2023-11-14,-0.03589748934037196
2023-11-15,-0.028028611867135234
2023-11-16,-0.024707622643973574
2023-11-17,-0.030695495984350604
2023-11-20,-0.03505063299648349
2023-11-21,-0.02709884562843031
2023-11-22,-0.026745607263406787
2023-11-23,-0.025144440118655242
2023-11-24,-0.018846183524009574
2023-11-27,-0.04243633870785533
2023-11-28,-0.03829148807974533
2023-11-29,-0.030816093040141154
2023-11-30,-0.030267277865212223
2023-12-01,-0.039274738691435856
2023-12-04,-0.04183609153350769
2023-12-05,-0.039735337555737174
2023-12-06,-0.03625428061977687
2023-12-07,-0.038437722671349026
2023-12-08,-0.0401989558208683
2023-12-11,-0.030231079053773608
2023-12-12,-0.029511361624043053
2023-12-13,-0.026634460503420505
2023-12-14,-0.026832389575546383
2023-12-15,-0.024994572747649837
2023-12-18,-0.023212072635984245
2023-12-19,-0.022922164111604467
2023-12-20,-0.010757725047060282
2023-12-21,-0.014427387357308823
2023-12-22,-0.020696342288678567
2023-12-25,-0.02247532098948061
2023-12-26,-0.00853311597889176
2023-12-27,-0.014498351626865719
2023-12-28,-0.012540576294771996
2023-12-29,-0.020275294100415068
2024-01-02,-0.023349332008842323
2024-01-03,-0.022825941863510547
2024-01-04,-0.014890357986842708
2024-01-05,-0.01885358611891917
2024-01-08,-0.02475971544936402
2024-01-09,-0.015792678656837995
2024-01-10,-0.020663349521931253
2024-01-11,-0.025863178163556422
2024-01-12,-0.014324517175696445
2024-01-15,-0.012946097875122284
2024-01-16,-0.02489081186922342
2024-01-17,-0.03364394238265964
2024-01-18,-0.032717432812290004
2024-01-19,-0.03307891368895858
2024-01-22,-0.03918300835426761
2024-01-23,-0.033306879946827656
2024-01-24,-0.026585302236677363
2024-01-25,-0.02614882901227851
2024-01-26,-0.04382892833512056
2024-01-29,-0.043290329724578136
2024-01-30,-0.04835793442058449
2024-01-31,-0.04759142854533689
2024-02-01,-0.04367215657286323
2024-02-02,-0.052606622769750255
2024-02-05,-0.03532228413593516
2024-02-06,-0.03004257497392264
2024-02-07,-0.037590136715227485
2024-02-08,-0.05177617441182891
2024-02-19,-0.04985005075849007
2024-02-20,-0.04385072370301733
2024-02-21,-0.03160925410840727
2024-02-22,-0.038008268703914674
2024-02-23,-0.03489947014204835
2024-02-26,-0.03376651007477879
2024-02-27,-0.0409246888680366
2024-02-28,-0.027703628256975144
2024-02-29,-0.035009821794516
2024-03-01,-0.0396006985399598
2024-03-04,-0.0482470695847448
2024-03-05,-0.059018544159452284
2024-03-06,-0.0543847517973804
2024-03-07,-0.056844929646636684
2024-03-08,-0.05775751185438988
2024-03-11,-0.04547141094485557
2024-03-12,-0.024930428632384885
2024-03-13,-0.02783922398839463
2024-03-14,-0.023363468600957435
2024-03-15,-0.026332547598495945
2024-03-18,-0.023150142570472775
2024-03-19,-0.02683923343115257
2024-03-20,-0.023843645134563045
2024-03-21,-0.012482634494572566
2024-03-22,-0.023024040407680614
2024-03-25,-0.02418851504646859
2024-03-26,-0.01086915105395439
2024-03-27,-0.007074079928263119
2024-03-28,-0.01609904962817472
2024-03-29,-0.016357610652930905
2024-04-01,-0.020943512056390987
2024-04-02,-0.02187377709586538
2024-04-03,-0.021290804344043554
2024-04-08,-0.017889120707181183
2024-04-09,-0.009017359566965255
2024-04-10,-0.003125044141666502
2024-04-11,-0.004322542872115776
2024-04-12,-0.014939953808323381
2024-04-15,-0.022113788492947567
2024-04-16,-0.013509553331401107
2024-04-17,-0.01640749110932035
2024-04-18,-0.025741866993542653
2024-04-19,-0.02964804518253178
2024-04-22,-0.012375528725062049
2024-04-23,-0.008210283781871427
2024-04-24,-0.00980981881122817
2024-04-25,-0.00042962998015992973
2024-04-26,-0.003083503629147985
2024-04-29,0.0012009439486383375
2024-04-30,0.0042207977785673895
2024-05-06,0.01687777836113867
2024-05-07,0.01599705177886141
2024-05-08,0.020727581960186495
2024-05-09,0.01628210372494987
2024-05-10,0.011914014667353853
2024-05-13,0.01886174374689624
2024-05-14,0.019388171766437368
2024-05-15,0.014846810169364857
2024-05-16,0.02113518415636241
2024-05-17,0.015578917054538122
2024-05-20,0.013093278419014365
2024-05-21,0.012393592826420122
2024-05-22,0.015354685960117187
2024-05-23,0.013501905172449494
2024-05-24,0.012985548107870386
2024-05-27,0.016674393553335345
2024-05-28,0.011471160873345196
2024-05-29,0.009035414743341033
2024-05-30,0.015697854210462436
2024-05-31,0.0217084851627935
2024-06-03,0.01958795023846046
2024-06-04,0.020476059463452864
2024-06-05,0.022875854630880467
2024-06-06,0.02029689816311392
2024-06-07,0.01993320859068619
2024-06-11,0.018310288089051288
2024-06-12,0.012670620292029866
2024-06-13,0.013566250847621655
2024-06-14,0.01303192047117957
2024-06-17,0.01448312495215115
2024-06-18,0.010324352777683718
2024-06-19,0.004267034268897782
2024-06-20,0.002941062522971674
2024-06-21,0.005722092655552916
2024-06-24,0.0030581060072672334
2024-06-25,0.0021409801346591387
2024-06-26,-0.0004522157534289223
2024-06-27,-2.6816032623125374e-05
2024-06-28,-0.012256574436575938
2024-07-01,-0.022036448566234886
2024-07-02,-0.032479417678952446
2024-07-03,-0.04688255914836872
2024-07-04,-0.07629695880858114
2024-07-05,-0.09171957932677327
2024-07-08,-0.07633934681654753
2024-07-09,-0.08200894286635632
2024-07-10,-0.06402935781812585
2024-07-11,-0.047868006903031945
2024-07-12,-0.03197190660053148
2024-07-15,-0.03886423688335165
2024-07-16,-0.04207967928074448
2024-07-17,-0.04694768959523005
2024-07-18,-0.03588640953989662
2024-07-19,-0.03703320472730898
2024-07-22,-0.040165756310054895
2024-07-23,-0.03464621937979406
2024-07-24,-0.05261762391075042
2024-07-25,-0.04612215342955811
2024-07-26,-0.04986799967570402
2024-07-29,-0.05009099802663161
2024-07-30,-0.054736896265099394
2024-07-31,-0.04934358834735528
2024-08-01,-0.05899430519092508
2024-08-02,-0.07947640165607356
2024-08-05,-0.05375414718497326
2024-08-06,-0.06905614608664976
2024-08-07,-0.07100178440200167
2024-08-08,-0.07082791635797633
2024-08-09,-0.07713891844725754
2024-08-12,-0.0815045824531575
2024-08-13,-0.07824812453685318
2024-08-14,-0.07195105740188665
2024-08-15,-0.07140460583279296
2024-08-16,-0.08385744236036075
2024-08-19,-0.08889565033463587
2024-08-20,-0.10008518724816234
2024-08-21,-0.08738820201452804
2024-08-22,-0.08338504521105719
2024-08-23,-0.08056429959534683
2024-08-26,-0.08009994565521755
2024-08-27,-0.0860952576766586
2024-08-28,-0.09516080072794994
2024-08-29,-0.08083595603824112
2024-08-30,-0.058837164722988666
2024-09-02,-0.059476152450077924
2024-09-03,-0.0495097842615127
2024-09-04,-0.05576329330428842
2024-09-05,-0.05370080398975183
2024-09-06,-0.0579694678107629
2024-09-09,-0.05347060514124671
2024-09-10,-0.046821543804966476
2024-09-11,-0.0389026253663417
2024-09-12,-0.040213154062373246
2024-09-13,-0.03954697304085472
2024-09-18,-0.035591341742059496
2024-09-19,-0.042206908937645476
2024-09-20,-0.04267065562883049
2024-09-23,-0.042728082515247984
2024-09-24,-0.031047985862516086
2024-09-25,-0.025566058666922603
2024-09-26,-0.014621386324439906
2024-09-27,0.0010060837647685034
2024-09-30,0.015471019466126962
2024-10-08,0.008752055349122004
2024-10-09,0.013599002668797539
2024-10-10,0.010460684066907242
2024-10-11,-0.0004416120434371715
2024-10-14,0.002841174345854021
2024-10-15,0.004008709751968062
2024-10-16,-0.006523125729351376
2024-10-17,0.00648620650121013
2024-10-18,-0.00679016374926349
2024-10-21,-0.002677305033081603
2024-10-22,-0.0053294287726166865
2024-10-23,-0.004899425039213978
2024-10-24,0.0013590637036881847
2024-10-25,-0.014234611221453393
2024-10-28,-0.012013530188397412
2024-10-29,0.00508892405347983
2024-10-30,-0.009417604496747198
2024-10-31,0.00032451149509205284
2024-11-01,-0.01297081740525641
2024-11-04,-0.02420750543646373
2024-11-05,-0.032985334916368805
2024-11-06,-0.0275117590936975
2024-11-07,-0.03392698537461227
2024-11-08,-0.03220906867084123
2024-11-11,-0.03601320070015531
2024-11-12,-0.04304529470138029
2024-11-13,-0.052938142660381764
2024-11-14,-0.04868941082788313
2024-11-15,-0.04117990410742758
2024-11-18,-0.021773030111345924
2024-11-19,-0.029602514801882022
2024-11-20,-0.017678018976686916
2024-11-21,-0.01734365973903055
2024-11-22,-0.008173181856454353
2024-11-25,-0.007577651309308195
2024-11-26,-0.005865512552475555
2024-11-27,-0.01809942240972149
2024-11-28,-0.01692244546079858
2024-11-29,-0.01869301190985693
2024-12-02,-0.018906389352262274
2024-12-03,-0.007991953205532427
2024-12-04,-0.011454317527440083
2024-12-05,-0.020454136397744183
2024-12-06,-0.019945402182009228
2024-12-09,-0.00902505966821283
2024-12-10,-0.008924554265000148
2024-12-11,-0.013766122022971582
2024-12-12,-0.012982776324912945
2024-12-13,-0.015259767277616215
2024-12-16,-0.02153966954022673
2024-12-17,-0.018370727158461796
2024-12-18,-0.026400740603273798
2024-12-19,-0.038667799631222924
2024-12-20,-0.04135695183019554
2024-12-23,-0.03486277769522211
2024-12-24,-0.043827886201910415
2024-12-25,-0.0427467112984086
2024-12-26,-0.04721867814328091
2024-12-27,-0.051695642243870535
2024-12-30,-0.04132907800246391
2024-12-31,-0.03706813385693625
2025-01-02,-0.027809939892994295
2025-01-03,-0.022059388442588757
2025-01-06,-0.01161272113757665
2025-01-07,-0.023611856960500454
2025-01-08,-0.02469042279056983
2025-01-09,-0.03146973057518297
2025-01-10,-0.02943310603488728
2025-01-13,-0.03215502819751837
2025-01-14,-0.03329610985983495
2025-01-15,-0.03967931268880858
2025-01-16,-0.03644073973824211
2025-01-17,-0.0419536588386082
2025-01-20,-0.049088655185436154
2025-01-21,-0.06048502761541151
2025-01-22,-0.06275043077176318
2025-01-23,-0.06564907197570571
2025-01-24,-0.048621279202197054
2025-01-27,-0.04607128596642362
2025-02-05,-0.040285686487048264
2025-02-06,-0.04033333760376916
2025-02-07,-0.03821425143441952
2025-02-10,-0.04028745401198958
2025-02-11,-0.038371636380651594
2025-02-12,-0.042806539013712605
2025-02-13,-0.03260804243463199
2025-02-14,-0.03897339421246597
2025-02-17,-0.03904136557917751
2025-02-18,-0.03974470690776272
2025-02-19,-0.048518833371705754
2025-02-20,-0.04539438601390061
2025-02-21,-0.06603812701183306
2025-02-24,-0.06790656041064873
2025-02-25,-0.07271966296409388
2025-02-26,-0.07715943778881976
2025-02-27,-0.07305158180747803
2025-02-28,-0.04687333450494664
2025-03-03,-0.05133065035624708
2025-03-04,-0.054703782134317
2025-03-05,-0.058902603120781084
2025-03-06,-0.05962799396630375
2025-03-07,-0.0531854188087574
2025-03-10,-0.04405051274324473
2025-03-11,-0.036919059268127254
2025-03-12,-0.04110121503294288
2025-03-13,-0.025195903966771377
2025-03-14,-0.034998260588686374
2025-03-17,-0.0276226414665015
2025-03-18,-0.03858632260083793
2025-03-19,-0.03096894113428436
2025-03-20,-0.02820657443032512
2025-03-21,-0.01978437005697944
2025-03-24,-0.017142382104792287
2025-03-25,0.006647661163746295
2025-03-26,0.014100688639777783
2025-03-27,0.012422595689134494
2025-03-28,0.01404340550663334
2025-03-31,0.020372437572851794
2025-04-01,0.02427104193505409
2025-04-02,0.010900758829520806
2025-04-03,0.024028907160202465
2025-04-07,0.04763964748348265
2025-04-08,0.07308601662676432
2025-04-09,0.0652545785172924
2025-04-10,0.045052661238673575
2025-04-11,0.030041163991478395
2025-04-14,0.03003708657926979
2025-04-15,0.03194956500027624
2025-04-16,0.04864002726233119
2025-04-17,0.048040300299281816
2025-04-18,0.056051542284665565
2025-04-21,0.04221090648551987
2025-04-22,0.03996494816401966
2025-04-23,0.02239234917192459
2025-04-24,0.035779212298304275
2025-04-25,0.026554755355006565
2025-04-28,0.03503697800154916
2025-04-29,0.03894581439818265
2025-04-30,0.031974605237999706
2025-05-06,0.022572469657073033
2025-05-07,0.041085443272083286
2025-05-08,0.038308494129631165
2025-05-09,0.04610310926048482
2025-05-12,0.045591525445061204
2025-05-13,0.05646736319674843
2025-05-14,0.046178725833400894
2025-05-15,0.055546752713862
2025-05-16,0.05293440578199142
2025-05-19,0.05316186777655581
2025-05-20,0.05649691779871588
2025-05-21,0.06068103893221842
2025-05-22,0.06462192435088578
2025-05-23,0.07347771967527564
2025-05-26,0.07169378465825592
2025-05-27,0.06345041777008156
2025-05-28,0.06034806483849922
2025-05-29,0.06272302783097061
2025-05-30,0.07084824242192017
2025-06-03,0.058384084179871926
2025-06-04,0.05603229243878094
2025-06-05,0.06693550468154269
2025-06-06,0.06073951238696973
2025-06-09,0.06623579590568784
2025-06-10,0.06049483413625251
2025-06-11,0.05988328730681733
2025-06-12,0.03471680815025327
2025-06-13,0.029988562333618712
2025-06-16,0.011698764902662917
2025-06-17,0.019219996139451023
2025-06-18,0.027311747378163692
2025-06-19,0.04107504474522075
2025-06-20,0.049004496332871045
2025-06-23,0.0465014279124116
2025-06-24,0.042969845713942495
2025-06-25,0.03329949438731725
2025-06-26,0.03961125695974457
2025-06-27,0.026275887238122908
2025-06-30,0.04692456499739303
2025-07-01,0.04790000102656569
2025-07-02,0.05657248622156377
2025-07-03,0.06058380468871166
2025-07-04,0.04648084964705859
2025-07-07,0.04488904111661157
2025-07-08,0.054668505962625236
2025-07-09,0.05402285030543075
2025-07-10,0.04600905502285152
2025-07-11,0.03100004393493233
2025-07-14,0.024090020793162248
2025-07-15,0.01857424906583538
2025-07-16,0.018493792448369628
2025-07-17,0.016117125543507027
2025-07-18,0.028440794114448734
2025-07-21,0.039550719890523806
2025-07-22,0.035930479970161716
2025-07-23,0.016890275091711024
2025-07-24,0.0332936654205489
2025-07-25,0.028337061302404126
2025-07-28,0.011395255598758633
2025-07-29,0.0023095738635023066
2025-07-30,0.0001405916601644186
2025-07-31,0.0020013409830895723
2025-08-01,0.008440848292292719
2025-08-04,-0.0010812504319936411
2025-08-05,-0.011567865772123598
2025-08-06,-0.01686538561697437
2025-08-07,-0.01005074196177308
2025-08-08,-0.00252965742438499
2025-08-11,-0.0033239508700564635
2025-08-12,-0.007838685754672586
2025-08-13,-0.015686258647974544
2025-08-14,-0.016614557564422983
2025-08-15,-0.00512000930667586
2025-08-18,-0.005566387393559913
2025-08-19,-0.0069401821397359065
2025-08-20,-0.0013914416838580468
2025-08-21,-0.002765809422249396
2025-08-22,-0.010259548551150108
2025-08-25,-0.013736529429021545
2025-08-26,0.004140235313626846
2025-08-27,-0.004379997273132194
2025-08-28,-0.031288451847471255
2025-08-29,-0.011028483241452811
2025-09-01,-0.02480393059343077
2025-09-02,-0.009899532420805329
2025-09-03,-0.00043297197662400463
2025-09-04,0.03715993710469222
2025-09-05,0.028221579678734218
2025-09-08,0.04750982664616968
2025-09-09,0.0560378633464442
2025-09-10,0.04359192234372097
2025-09-11,0.01702756305292996
2025-09-12,0.006260990098305046
2025-09-15,-0.0023064871033493936
2025-09-16,0.010684021850940289
2025-09-17,0.0006998192941295106
2025-09-18,-0.005251769382065761
2025-09-19,0.012321907482038333
2025-09-22,-0.0017179879444631802
2025-09-23,0.004628583261234699
2025-09-24,-0.00752925512584738
2025-09-25,-0.017405254759937813
2025-09-26,-0.006345932544049056
2025-09-29,-0.012225611372713337
2025-09-30,-0.023821769979341784
2025-10-09,-0.006926993790100815
2025-10-10,0.027975775126257534
2025-10-13,0.03000771635355331
2025-10-14,0.06267675665120832
2025-10-15,0.061610886622892935
2025-10-16,0.08798395253778905
2025-10-17,0.08188410793381842
2025-10-20,0.08909340510847757
2025-10-21,0.07358252763031678
2025-10-22,0.09230179401950983
2025-10-23,0.09231430271614374
2025-10-24,0.05354266895940801
2025-10-27,0.06009271939187713
2025-10-28,0.06530244130230033
2025-10-29,0.0626671529537268
2025-10-30,0.060921195969478495
2025-10-31,0.09238344075318583
2025-11-03,0.10507696406059658
2025-11-04,0.09736648773533804
2025-11-05,0.09778850094328997
2025-11-06,0.06289156269440038
2025-11-07,0.08126522376970265
2025-11-10,0.08215826484310212
2025-11-11,0.07532344887387478
2025-11-12,0.07745990109787143
2025-11-13,0.08705076890905741
2025-11-14,0.09991854481887233
2025-11-17,0.09041071906174865
2025-11-18,0.10335647259888164
2025-11-19,0.10209495064858161
2025-11-20,0.10598176840461275
2025-11-21,0.1339466734584071
2025-11-24,0.14586671418409733
2025-11-25,0.13043021033722937
2025-11-26,0.11523746901915434
2025-11-27,0.08410612660541662
2025-11-28,0.07937777854662689
2025-12-01,0.08719062534710587
2025-12-02,0.08272689709808131
2025-12-03,0.07722459752863552
2025-12-04,0.08668784139623771
2025-12-05,0.0729241938977577
2025-12-08,0.04561394512156304
2025-12-09,0.03492420969267035
2025-12-10,0.037848582524449226
2025-12-11,0.028702329876636647
2025-12-12,0.035190887442180206
2025-12-15,0.035245549010663596
2025-12-16,0.04356959148973388
2025-12-17,0.015961543320392325
2025-12-18,0.027130431071189308
2025-12-19,0.042720635048688976
2025-12-22,0.017341312925365237
2025-12-23,0.009499504095498879
2025-12-24,0.004414450696472358
2025-12-25,-0.0013597350833511566
2025-12-26,0.01297451201673874
2025-12-29,-0.0030847256062610483
2025-12-30,0.0013897390989683588
2025-12-31,0.009061549695056539
2026-01-05,0.022523914365158194
2026-01-06,0.016316866607954186
2026-01-07,0.01637889455052366
2026-01-08,0.018713622306670594
2026-01-09,0.025451805940690443
2026-01-12,-0.002661739336878532
2026-01-13,0.02373473354046403
2026-01-14,0.02421041658733309
2026-01-15,0.027180417679864295
2026-01-16,0.013071599080335044
2026-01-19,0.035251938862038125
2026-01-20,0.03681366314935984
2026-01-21,0.02279995712333907
2026-01-22,0.03684998894114365
2026-01-23,0.00900504803814016
2026-01-26,0.02094497913677068
2026-01-27,0.027602933651288866
2026-01-28,0.04988628132634651
2026-01-29,0.07415780250997114
2026-01-30,0.07455317427245298
2026-02-02,0.11333657993690183
2026-02-03,0.09599135772337529
2026-02-04,0.13364609057550947
2026-02-05,0.13258262499832207
2026-02-06,0.12903691093986996
2026-02-09,0.12615471053522354
2026-02-10,0.12095731108666836
2026-02-11,0.13873206197388363
2026-02-12,0.10243806494139934
2026-02-13,0.12381860234515539
2026-02-24,0.14273114661823982
2026-02-25,0.13558342713435972
2026-02-26,0.11743129887502982
2026-02-27,0.1286991567739446
2026-03-02,0.09234927845415758
2026-03-03,0.09715242181495862
2026-03-04,0.10485677935130125
2026-03-05,0.11380309202946627
2026-03-06,0.13009495073395327
2026-03-09,0.122766913973097
2026-03-10,0.10392264987684147
2026-03-11,0.13117566473722309
2026-03-12,0.12918752028499852
2026-03-13,0.13344844441243228
2026-03-16,0.1265688968690765
2026-03-17,0.1749640461087949
2026-03-18,0.17570573409321014
2026-03-19,0.20113693836988775
2026-03-20,0.21990608598146572
2026-03-23,0.24993169757517336
2026-03-24,0.2208141657793949
2026-03-25,0.24146995745789268
2026-03-26,0.2675966936766904
