date,long_short
2015-03-12,-0.013303624007595702
2015-03-13,0.026380495829334515
2015-03-16,0.013491398838173185
2015-03-17,0.010687395181572648
2015-03-18,0.023327924839856122
2015-03-19,0.026600811787619014
2015-03-20,-0.012615165534946626
2015-03-23,-0.04327929737372805
2015-03-24,-0.039421211440943946
2015-03-25,-0.03870317717740373
2015-03-26,-0.02418902622719439
2015-03-27,0.004930596840559159
2015-03-30,0.021247082523736756
2015-03-31,0.017374694029195906
2015-04-01,0.006284686477193144
2015-04-02,0.008483138569881865
2015-04-03,0.01612316125865733
2015-04-07,0.01503590073467053
2015-04-08,-0.004122609954929836
2015-04-09,-0.003081303719500647
2015-04-10,-0.007712334975272669
2015-04-13,-0.00832120351590794
2015-04-14,-0.010873055460567396
2015-04-15,-0.015749478077060633
2015-04-16,-0.005035647829985612
2015-04-17,-0.0007413788339264982
2015-04-20,0.006934358902658436
2015-04-21,0.013448623424943386
2015-04-22,0.002141956546430235
2015-04-23,0.0018366165472485478
2015-04-24,0.022676358883150404
2015-04-27,0.026444852923229532
2015-04-28,0.015353734676658825
2015-04-29,0.01191984460548191
2015-04-30,0.006778872844266548
2015-05-04,0.005821091319742788
2015-05-05,0.01817054842621815
2015-05-06,0.015648551562241507
2015-05-07,0.0327150973821736
2015-05-08,0.0273524993718397
2015-05-11,0.017218969063580364
2015-05-12,0.01854213403104231
2015-05-13,0.018019706094871288
2015-05-14,0.0166783411886922
2015-05-15,0.021089841180326054
2015-05-18,0.04561375746143334
2015-05-19,0.0485408801599773
2015-05-20,0.039267559406162264
2015-05-21,0.030855327686401424
2015-05-22,0.0396376381829703
2015-05-25,0.056193650803261816
2015-05-26,0.01489288240411554
2015-05-27,0.02511509104360884
2015-05-28,0.058306872907604425
2015-05-29,0.07468365407180814
2015-06-01,0.030159103842303116
2015-06-02,-0.004770754044017701
2015-06-03,-0.01783221730099006
2015-06-04,-0.020543483226949717
2015-06-05,-0.04590392712701697
2015-06-08,-0.04298398017495343
2015-06-09,-0.04884383603261701
2015-06-10,-0.0644044759401029
2015-06-11,-0.08936605570006641
2015-06-12,-0.1428637456306718
2015-06-15,-0.08380322901050993
2015-06-16,-0.07418693803170423
2015-06-17,-0.10747894688502407
2015-06-18,-0.10311097984088864
2015-06-19,-0.06809953207164592
2015-06-23,-0.09030097832784303
2015-06-24,-0.07961975756281131
2015-06-25,-0.03808335216330705
2015-06-26,0.010663130232744476
2015-06-29,0.04436285945009989
2015-06-30,0.016395627116350037
2015-07-01,-0.005172370742291411
2015-07-02,0.022823486388983454
2015-07-03,0.04659745905473464
2015-07-06,0.02332451838496835
2015-07-07,0.055507209248637675
2015-07-08,0.07475903026403147
2015-07-09,0.057039715503965006
2015-07-10,0.024349946771824404
2015-07-13,-0.029282925961810806
2015-07-14,-0.034154767008132206
2015-07-15,0.008054738259658512
2015-07-16,-0.00959556036775484
2015-07-17,-0.026849286701617237
2015-07-20,-0.03656906943428301
2015-07-21,-0.017387707719627422
2015-07-22,-0.024802069771698708
2015-07-23,-0.03464106000965918
2015-07-24,-0.025568406671450862
2015-07-27,0.023746370607469938
2015-07-28,-0.015842247601361707
2015-07-29,-0.024548282071303586
2015-07-30,-0.0125089399350937
2015-07-31,-0.0071140722916041635
2015-08-03,-0.0007986915166773995
2015-08-04,-0.021732389827875523
2015-08-05,-0.014636997002875672
2015-08-06,-0.014742918618258105
2015-08-07,-0.033240349152233825
2015-08-10,-0.05098269457858738
2015-08-11,-0.04707842850064886
2015-08-12,-0.039120522493101856
2015-08-13,-0.04183139072433553
2015-08-14,-0.04931655546315755
2015-08-17,-0.04302859302502164
2015-08-18,-0.05016100190594128
2015-08-19,-0.06029441588610003
2015-08-20,-0.03421980030758588
2015-08-21,-0.021899541682340082
2015-08-24,-0.000781615243307613
2015-08-25,0.04751217745763117
2015-08-26,0.031901951467293
2015-08-27,-0.004035365997086881
2015-08-28,-0.010223594336375305
2015-08-31,-0.008915865418826396
2015-09-01,-0.0021660084551683645
2015-09-02,0.0005088532740430921
2015-09-07,-0.004620856151835837
2015-09-08,-0.00020195500063083498
2015-09-09,-0.004681974771467014
2015-09-10,-0.0030364156953997003
2015-09-11,-0.007851331159639478
2015-09-14,0.023800842630468895
2015-09-15,0.04015214348234485
2015-09-16,0.026418263539881373
2015-09-17,0.01724552374245424
2015-09-18,0.01935360236562177
2015-09-21,0.014479636830129608
2015-09-22,0.01685076626596366
2015-09-23,0.013135961531501247
2015-09-24,0.00744333839989663
2015-09-25,0.016355969609200688
2015-09-28,0.010477682590373238
2015-09-29,0.017894192568693748
2015-09-30,-0.003384089958697614
2015-10-08,0.012830377350777189
2015-10-09,0.010720661220013
2015-10-12,0.005695177653044486
2015-10-13,0.006981815376447931
2015-10-14,-0.002261672134574469
2015-10-15,0.0017304254095880604
2015-10-16,0.0029766907529998107
2015-10-19,-0.0070374566347341065
2015-10-20,-0.014585946708292136
2015-10-21,0.02144473674418628
2015-10-22,0.0116721506686659
2015-10-23,0.0260906622812063
2015-10-26,0.032579971265926475
2015-10-27,0.031010315674438873
2015-10-28,0.0529119052425411
2015-10-29,0.04873664304428712
2015-10-30,0.035408797346090815
2015-11-02,0.06204838702837327
2015-11-03,0.051087057184018014
2015-11-04,0.02454401151434788
2015-11-05,0.031098078678404723
2015-11-06,0.015947854774077837
2015-11-09,0.007814432893947777
2015-11-10,0.008466475682008031
2015-11-11,0.009309692191868562
2015-11-12,0.0110049893197657
2015-11-13,-0.012304246373596468
2015-11-16,-0.029930515501921807
2015-11-17,-0.020548604927706916
2015-11-18,-0.01973383745734334
2015-11-19,-0.0054378094300993685
2015-11-20,-0.005995843958023703
2015-11-23,-0.0029305596044229398
2015-11-24,-0.013268750805630645
2015-11-25,-0.013401730024268501
2015-11-26,-0.007337418418168269
2015-11-27,0.00427352273630264
2015-11-30,0.028345934658365577
2015-12-01,0.03321625711974166
2015-12-02,0.02914633258972696
2015-12-03,0.017185221892829873
2015-12-04,0.02130467402898812
2015-12-07,0.04214713533852265
2015-12-08,0.037388181605790514
2015-12-09,0.046526974828965395
2015-12-10,0.025358136328491144
2015-12-11,0.04683017175262551
2015-12-14,0.012663869374333996
2015-12-15,0.009690824072705106
2015-12-16,0.004374559381536618
2015-12-17,-0.00011739285570453589
2015-12-18,-0.03700561971925642
2015-12-21,-0.024327593380990407
2015-12-22,-0.025110938246760795
2015-12-23,-0.035893806586136424
2015-12-24,-0.028112606565344006
2015-12-25,-0.03282683202862122
2015-12-28,-0.008036941937493672
2015-12-29,-0.020088454557544683
2015-12-30,-0.017538665626335034
2015-12-31,-0.025475381572559408
2016-01-04,0.003488036191179905
2016-01-05,-0.011852953949567618
2016-01-06,-0.0076814000813553995
2016-01-07,0.019028550761465535
2016-01-08,0.010152309695773437
2016-01-11,0.017902906930402737
2016-01-12,-0.02068146518767123
2016-01-13,-0.01132009387399649
2016-01-14,-0.025445367564216184
2016-01-15,-0.026377721253554903
2016-01-18,-0.03254286902928406
2016-01-19,-0.028489865502196385
2016-01-20,-0.0187609184957375
2016-01-21,-0.03768812903183947
2016-01-22,-0.03772005186284469
2016-01-25,-0.028397691212671862
2016-01-26,-0.006519275812804739
2016-01-27,0.008185268255879518
2016-01-28,0.015112960902526971
2016-01-29,0.019180844774063708
2016-02-01,0.029879330948546064
2016-02-02,0.017561670174194223
2016-02-03,0.004169803846142885
2016-02-04,4.2836067834425585e-05
2016-02-05,-0.011808035105074478
2016-02-15,-0.032471692512889415
2016-02-16,-0.03316606985258842
2016-02-17,-0.02981393731626232
2016-02-18,-0.02139739463181495
2016-02-19,-0.025557271227413705
2016-02-22,-0.03075352623921461
2016-02-23,-0.02322636942972901
2016-02-24,-0.014775546368109467
2016-02-25,-0.0011812393233851075
2016-02-26,-0.023950703878509026
2016-02-29,-0.0061317239162374665
2016-03-01,-0.013127292769849076
2016-03-02,-0.003338675226377107
2016-03-03,-0.010706620818119371
2016-03-04,0.003479807063871781
2016-03-07,0.012630090430837057
2016-03-08,0.008859305482340492
2016-03-09,0.005092676759605848
2016-03-10,0.0036809819291728357
2016-03-11,0.01704079032030459
2016-03-14,0.016139123936046877
2016-03-15,0.020030045260032683
2016-03-16,0.005128853695519138
2016-03-17,0.008011324488438522
2016-03-18,0.006102190418675304
2016-03-21,0.0023434191075166555
2016-03-22,0.007293716458772556
2016-03-23,0.0016952230404724037
2016-03-24,-0.006935130227957099
2016-03-25,-0.0036873866783382232
2016-03-28,-0.0015054207593220084
2016-03-29,-0.00726763507558735
2016-03-30,-0.013424615848630538
2016-03-31,-0.017194006523325114
2016-04-01,-0.011951413124693083
2016-04-05,-0.029100374331643728
2016-04-06,-0.03364933296354427
2016-04-07,-0.025861067915115506
2016-04-08,-0.03262806356492101
2016-04-11,-0.029411566459446956
2016-04-12,-0.017545146289159007
2016-04-13,-0.014185370005732893
2016-04-14,-0.013932091571533828
2016-04-15,-0.011886620082320287
2016-04-18,-0.0041131092596008246
2016-04-19,0.006872707385087476
2016-04-20,0.010204704642392683
2016-04-21,0.02733976965481019
2016-04-22,0.015699700632021585
2016-04-25,0.011286148264937502
2016-04-26,-0.000721032969085364
2016-04-27,0.008941390478867611
2016-04-28,0.019413005280167282
2016-04-29,0.01580755807513754
2016-05-03,0.002497005154802629
2016-05-04,0.007384752742200004
2016-05-05,-0.00015474597373688753
2016-05-06,-0.002971956313680706
2016-05-09,0.0024164690914342223
2016-05-10,-0.0010716408364108941
2016-05-11,-0.012651624510077033
2016-05-12,-0.01786890448198908
2016-05-13,-0.022199701705277197
2016-05-16,-0.011730155500362185
2016-05-17,-0.017479146472013395
2016-05-18,-0.025231177872381418
2016-05-19,-0.017900150650802905
2016-05-20,-0.008075111860159224
2016-05-23,-0.0063000398440869465
2016-05-24,-0.010510055680263884
2016-05-25,0.002576637944175335
2016-05-26,0.023621087881233578
2016-05-27,0.012039762635274837
2016-05-30,0.012411464873717127
2016-05-31,0.01609319396938694
2016-06-01,0.017177235463339473
2016-06-02,0.0016519653242307863
2016-06-03,0.002458844586155605
2016-06-06,-0.007015162538739827
2016-06-07,0.0019537681290740672
2016-06-08,0.015980038261747383
2016-06-13,0.012400970535586541
2016-06-14,0.019251674951420848
2016-06-15,0.005664312875850765
2016-06-16,-0.0012027592320902752
2016-06-17,0.0024824097904026163
2016-06-20,0.014917443011873095
2016-06-21,0.006294589282250913
2016-06-22,0.014639625874798976
2016-06-23,0.020513565020087925
2016-06-24,0.008755730409502178
2016-06-27,-0.008588784151338187
2016-06-28,-0.01790288795244855
2016-06-29,-0.011661055288218668
2016-06-30,-0.018420449063115487
2016-07-01,-0.020301039774957452
2016-07-04,-0.02509055486795344
2016-07-05,-0.019241029656078032
2016-07-06,-0.015316765877840298
2016-07-07,-0.021636262115112326
2016-07-08,-0.02137956773966345
2016-07-11,-0.017471190890317456
2016-07-12,-0.012478565294160098
2016-07-13,-0.01640777279904525
2016-07-14,-0.014839090623238195
2016-07-15,-0.02108489158297284
2016-07-18,-0.0045726373530951755
2016-07-19,-0.004295197082958299
2016-07-20,-0.004238206260249143
2016-07-21,0.0012979600249219923
2016-07-22,-0.004699350694320948
2016-07-25,-0.002088699708214007
2016-07-26,-0.009654412980568069
2016-07-27,-0.00619993745758618
2016-07-28,-0.01377019797524824
2016-07-29,-0.016879905652733288
2016-08-01,-0.008412589811730611
2016-08-02,-0.009594953135379773
2016-08-03,-0.010160803629705686
2016-08-04,-0.01324937995540023
2016-08-05,-0.005525414744141567
2016-08-08,-0.00978238648404696
2016-08-09,-0.013519596188143019
2016-08-10,-0.011272197908765758
2016-08-11,-0.007169953607007508
2016-08-12,0.0016221572948320606
2016-08-15,-0.0018697899938413878
2016-08-16,-0.0009431426161001103
2016-08-17,0.010893100965992775
2016-08-18,0.006640492809468212
2016-08-19,-0.0028231681781266636
2016-08-22,-0.00297860052200621
2016-08-23,-0.003180931402788123
2016-08-24,0.0015022565025100939
2016-08-25,0.0023930233938832344
2016-08-26,-0.008487639041759825
2016-08-29,-0.001813617485249261
2016-08-30,-0.009094276279896826
2016-08-31,-0.0062383085600278936
2016-09-01,-0.01486327188769453
2016-09-02,-0.006996680861721549
2016-09-05,-0.01710563296813533
2016-09-06,-0.00388316078312655
2016-09-07,-0.010645306945599991
2016-09-08,-0.0005906103411306568
2016-09-09,0.00044894903204085665
2016-09-12,-0.0023385288540348796
2016-09-13,0.004519720724441885
2016-09-14,-0.0058432262972745175
2016-09-19,-0.015699599086578406
2016-09-20,-0.014087967448420377
2016-09-21,-0.009607484786557857
2016-09-22,-0.007903112919625553
2016-09-23,-0.005359577463424323
2016-09-26,-0.00964242080180761
2016-09-27,0.00458686553864408
2016-09-28,-0.011880165871127925
2016-09-29,-0.010953244531179962
2016-09-30,-0.015696613434067416
2016-10-10,-0.003563391048434769
2016-10-11,0.0002700979396437937
2016-10-12,-0.0034521795626047246
2016-10-13,-0.00816699619367343
2016-10-14,-0.008410142398820156
2016-10-17,-0.0030015562109994287
2016-10-18,-0.01382236263424254
2016-10-19,-0.003988273237265293
2016-10-20,-0.0018546767333276534
2016-10-21,-0.004799547031874054
2016-10-24,0.0007427371277292294
2016-10-25,-0.0014283977937285483
2016-10-26,0.009788307432478383
2016-10-27,0.006226975259704755
2016-10-28,0.006417194039422921
2016-10-31,0.0025975051910595813
2016-11-01,-0.0030606323817707268
2016-11-02,-0.0060167599994729
2016-11-03,-0.009868652331668127
2016-11-04,-0.007656011758022703
2016-11-07,-0.006446645582624505
2016-11-08,-0.0027899905167426686
2016-11-09,-0.011046696454194992
2016-11-10,-0.002848328542328981
2016-11-11,-0.007964808748815676
2016-11-14,-0.009922840842746274
2016-11-15,-0.0032107236729206
2016-11-16,0.003957541639182419
2016-11-17,-0.004573652377664664
2016-11-18,-0.0004860691679636434
2016-11-21,0.004371303297489823
2016-11-22,0.008500290094160506
2016-11-23,0.0009164469438480798
2016-11-24,-0.00586578595295092
2016-11-25,-0.005429528891788425
2016-11-28,0.019008719736826683
2016-11-29,0.024876961660168805
2016-11-30,0.019572483120646873
2016-12-01,0.006473039732298749
2016-12-02,-0.008836554119210027
2016-12-05,-0.008396625117679767
2016-12-06,0.0030314948991702166
2016-12-07,-0.010424211714098155
2016-12-08,0.00481521726585156
2016-12-09,0.0029075519273008485
2016-12-12,-0.013174320387814159
2016-12-13,-0.013939934122382371
2016-12-14,-0.019978818207163053
2016-12-15,-0.003960884716094727
2016-12-16,-0.01924336245589898
2016-12-19,-0.02407576975088376
2016-12-20,-0.03252268181698226
2016-12-21,-0.030667891221832153
2016-12-22,-0.027739163734235142
2016-12-23,-0.024736423961607835
2016-12-26,-0.026869421188506857
2016-12-27,-0.02373107745000219
2016-12-28,-0.017982116704802834
2016-12-29,-0.015464061197953283
2016-12-30,0.006105967903276475
2017-01-03,0.011984512763229628
2017-01-04,0.003925267505482454
2017-01-05,0.011109572126659022
2017-01-06,-0.0021344387803806947
2017-01-09,0.00663122429298111
2017-01-10,0.011816279141293667
2017-01-11,0.011650624786855144
2017-01-12,0.011847956435905891
2017-01-13,0.002654285489095112
2017-01-16,0.004913125515242346
2017-01-17,-0.00035417025502522577
2017-01-18,-0.002526451756307519
2017-01-19,-0.00456165869674275
2017-01-20,-0.007940815576588099
2017-01-23,-0.006043966588882375
2017-01-24,-0.00585888411181985
2017-01-25,-0.013156098443971935
2017-01-26,-0.012306104129306206
2017-02-03,-0.007570672585141405
2017-02-06,-0.014109052221425803
2017-02-07,-0.005209679048988312
2017-02-08,-0.0032409794420503388
2017-02-09,0.0017865863790109474
2017-02-10,0.007902106714227603
2017-02-13,0.010596559821098462
2017-02-14,0.0041556489947626825
2017-02-15,0.001767868484858012
2017-02-16,-0.0032684768820788685
2017-02-17,-0.004642478729420166
2017-02-20,-0.012958157848356642
2017-02-21,-0.012250802358796034
2017-02-22,-0.00950109723226531
2017-02-23,-0.006215475828492328
2017-02-24,-0.01097749055328397
2017-02-27,-0.02377813937316885
2017-02-28,-0.012563820234913583
2017-03-01,-0.0028396131701091177
2017-03-02,-0.006792222330822238
2017-03-03,0.004131233251139519
2017-03-06,0.005680929304480395
2017-03-07,0.005572968751157444
2017-03-08,0.004944584604510015
2017-03-09,0.006519013604055835
2017-03-10,0.0007594842546479186
2017-03-13,0.00942631321099504
2017-03-14,0.011108315272891741
2017-03-15,0.013115356164902567
2017-03-16,0.022575470194563473
2017-03-17,0.015532478764128868
2017-03-20,0.0024677518884025
2017-03-21,0.000756105815793366
2017-03-22,-0.0009546557757546276
2017-03-23,-0.00020511135768167162
2017-03-24,0.0025490027858783293
2017-03-27,0.004050208075261584
2017-03-28,0.0009584629224262805
2017-03-29,0.006548712261700423
2017-03-30,-0.00018721695898477053
2017-03-31,0.0019213492316392895
2017-04-05,0.023323431637215723
2017-04-06,0.02452089402211919
2017-04-07,0.024918919345206667
2017-04-10,0.016468947190237396
2017-04-11,0.014240963605837677
2017-04-12,0.0038999416457266914
2017-04-13,0.007791601992393718
2017-04-14,0.005142999632827737
2017-04-17,-0.00021941517358404009
2017-04-18,-0.0057473585237938956
2017-04-19,-0.019460755320016433
2017-04-20,-0.0014984836792574403
2017-04-21,-0.007869278523260156
2017-04-24,-0.014515932740574652
2017-04-25,0.009808311045776842
2017-04-26,0.00840115041984672
2017-04-27,0.003022207761525784
2017-04-28,0.004958748331148801
2017-05-02,0.003195687351797513
2017-05-03,0.005167765375413867
2017-05-04,0.009203196330819322
2017-05-05,-0.011495555383408738
2017-05-08,-0.003321060651433867
2017-05-09,0.012931748940263962
2017-05-10,-0.004097037330077602
2017-05-11,-0.013318410291811718
2017-05-12,-0.005427698640015724
2017-05-15,-0.01567966008259643
2017-05-16,-0.004897355076754564
2017-05-17,-0.00619986246383898
2017-05-18,-0.00584537885185792
2017-05-19,-0.0015849451216700377
2017-05-22,2.0776596500078626e-06
2017-05-23,-0.009010368334173215
2017-05-24,-0.0006623272063054145
2017-05-25,0.012549261574528708
2017-05-26,0.014256171510077008
2017-05-31,0.011639285014897811
2017-06-01,0.0007533227292344999
2017-06-02,-0.00042295973784127125
2017-06-05,0.002927697260769621
2017-06-06,0.0035380069910343065
2017-06-07,0.004913692894240956
2017-06-08,0.003971633687767153
2017-06-09,0.007549741079216845
2017-06-12,0.000689530757223656
2017-06-13,0.0037353947412562608
2017-06-14,0.008170792812070258
2017-06-15,0.006912752692029133
2017-06-16,0.01306534411452413
2017-06-19,0.006353410542157286
2017-06-20,0.010563166822106406
2017-06-21,0.004973542634214503
2017-06-22,0.0036246246940171596
2017-06-23,0.0009544321404244514
2017-06-26,-0.00868172101906411
2017-06-27,-0.0020635474107225044
2017-06-28,-0.002078953302311827
2017-06-29,-0.0010168246928949076
2017-06-30,0.0026964100360412583
2017-07-03,0.023839453662417853
2017-07-04,0.014274956474266225
2017-07-05,-0.003281044830159378
2017-07-06,0.024012325907075478
2017-07-07,0.03240637084419782
2017-07-10,0.03373071862397379
2017-07-11,0.027364707441430484
2017-07-12,0.027353106278481525
2017-07-13,0.017094289951243936
2017-07-14,0.012565556064518533
2017-07-17,-0.007246380451587892
2017-07-18,-0.011096101804952355
2017-07-19,0.0022564225816697012
2017-07-20,-0.009042492264333402
2017-07-21,-0.010017537600594817
2017-07-24,-0.011494020459108918
2017-07-25,-0.001987980667705877
2017-07-26,-0.00459693464235968
2017-07-27,0.01446615474984191
2017-07-28,0.005659774778291456
2017-07-31,-0.00595779712931512
2017-08-01,0.0011838017662470595
2017-08-02,-0.009057612947675209
2017-08-03,-0.0023757362206885957
2017-08-04,0.006793330332566849
2017-08-07,-0.001863503537095284
2017-08-08,-0.00019540451967994647
2017-08-09,-0.0010410773567548028
2017-08-10,-0.0029887113639315314
2017-08-11,0.0022675709510025614
2017-08-14,0.006355431815941327
2017-08-15,0.00920430502083831
2017-08-16,0.007138455269323413
2017-08-17,0.004034065301931171
2017-08-18,0.0023848999729482907
2017-08-21,0.006558090199470401
2017-08-22,0.0006401595880226318
2017-08-23,-0.0038488669515497446
2017-08-24,-0.004109038013739831
2017-08-25,-0.005350340683363262
2017-08-28,-0.009358859863484531
2017-08-29,-0.007214197315464171
2017-08-30,-0.0027501686843277775
2017-08-31,-0.002794731565415434
2017-09-01,0.002762914174462891
2017-09-04,0.0028751667752040843
2017-09-05,0.008092910960628402
2017-09-06,0.0041184033258656735
2017-09-07,0.0005254809870456527
2017-09-08,0.0008444324678931049
2017-09-11,0.004751243916341071
2017-09-12,-0.007273265728131558
2017-09-13,-0.009152598799091348
2017-09-14,0.002552022414235892
2017-09-15,-8.055500347210233e-05
2017-09-18,-0.007510617241327254
2017-09-19,-0.011194907229152999
2017-09-20,-0.004978817824717951
2017-09-21,-0.016209898064631252
2017-09-22,-0.015512900633715934
2017-09-25,-0.008696003850734128
2017-09-26,-0.004196842206894397
2017-09-27,-0.00044078043302225867
2017-09-28,-0.006501046173784364
2017-09-29,-0.008595992001345254
2017-10-09,-0.003753974450303053
2017-10-10,-0.0027200268305933584
2017-10-11,-0.0048512103391436315
2017-10-12,-0.0030264547871203034
2017-10-13,0.0030811007868211714
2017-10-16,-0.0020069067237901564
2017-10-17,0.0033058126373942086
2017-10-18,-0.002588838547589494
2017-10-19,0.002282996839008498
2017-10-20,0.011359716240175151
2017-10-23,0.008273899545284383
2017-10-24,-4.921662291361602e-05
2017-10-25,-0.004916241287057661
2017-10-26,0.01292266852941959
2017-10-27,0.0014045965149343809
2017-10-30,0.004223892372551285
2017-10-31,0.008381162676150087
2017-11-01,0.010161962799665832
2017-11-02,0.007808985561237847
2017-11-03,0.010761293103235583
2017-11-06,0.012342925619746302
2017-11-07,0.020062363716463468
2017-11-08,0.017140736083445594
2017-11-09,0.009000435469360059
2017-11-10,-0.001979820458029913
2017-11-13,0.009004746493700679
2017-11-14,0.001733162978363052
2017-11-15,-0.0022925270235055074
2017-11-16,-0.000360765995136467
2017-11-17,-0.01658772951380686
2017-11-20,-0.01728918984380492
2017-11-21,-0.01620781841347839
2017-11-22,-0.013700672882995375
2017-11-23,-0.012100064407424563
2017-11-24,-0.010011897553126523
2017-11-27,-0.0066190566751846
2017-11-28,-0.005676547641810718
2017-11-29,0.007165757637363575
2017-11-30,0.005961361201311829
2017-12-01,0.007603778579926599
2017-12-04,0.0017499745337264012
2017-12-05,-0.004258136479989431
2017-12-06,0.006432658785124944
2017-12-07,0.015271970276102591
2017-12-08,0.008992466652167566
2017-12-11,0.009708456055213305
2017-12-12,0.01020283573938515
2017-12-13,0.010353560136960793
2017-12-14,0.009708885123371942
2017-12-15,0.004954470887145282
2017-12-18,0.005730230372117576
2017-12-19,-0.0009107360864373925
2017-12-20,-0.011089873528546299
2017-12-21,-0.014864794628030475
2017-12-22,-0.014128466904792228
2017-12-25,-0.016442462117994914
2017-12-26,-0.01176294069247072
2017-12-27,0.0007106325440714295
2017-12-28,-0.004750901256578954
2017-12-29,0.017999305798475092
2018-01-02,0.01798779594398099
2018-01-03,0.016760073324256143
2018-01-04,0.023542663077776457
2018-01-05,0.01395270583422247
2018-01-08,0.015399690001450583
2018-01-09,0.015682916249569613
2018-01-10,0.007555999971308017
2018-01-11,0.0049591808877543185
2018-01-12,0.0007420802945140997
2018-01-15,-0.016746891282516843
2018-01-16,-0.014606565857885948
2018-01-17,0.0032440588968005637
2018-01-18,0.008440404990814731
2018-01-19,0.01671092714465476
2018-01-22,0.006868127765172087
2018-01-23,0.03386245569803897
2018-01-24,0.026270523797684207
2018-01-25,0.02388489392266646
2018-01-26,0.028350150398110924
2018-01-29,0.016494313427533353
2018-01-30,0.025690323397541785
2018-01-31,0.013966875397137486
2018-02-01,0.0006893748266434407
2018-02-02,-9.314754262203934e-05
2018-02-05,-0.015047690900370538
2018-02-06,-0.041745234796679194
2018-02-07,-0.02444553463723995
2018-02-08,-0.025010677261916744
2018-02-09,-0.030993856221929343
2018-02-12,-0.024725784262180854
2018-02-13,-0.03411127796518981
2018-02-14,-0.03389363493048961
2018-02-22,-0.03229773678637762
2018-02-23,-0.031544736276697495
2018-02-26,-0.03319336266495883
2018-02-27,-0.0258185978631767
2018-02-28,-0.01827749738566127
2018-03-01,-0.013692264665372272
2018-03-02,-0.01176525234301929
2018-03-05,-0.0024696134575703
2018-03-06,0.001768663330613663
2018-03-07,-0.001593772289979637
2018-03-08,-0.004470653741475584
2018-03-09,0.01896251899024444
2018-03-12,0.012596078066880075
2018-03-13,-0.0019201772899408998
2018-03-14,-0.00338113301816121
2018-03-15,-0.0015170992594129885
2018-03-16,-0.011670142240519066
2018-03-19,-0.018955149635943958
2018-03-20,-0.01834748115117962
2018-03-21,-0.011756251831017913
2018-03-22,-0.008906294645568143
2018-03-23,-0.018915221838880798
2018-03-26,-0.013427770946325107
2018-03-27,-0.0031740378709069314
2018-03-28,-0.007135417878066353
2018-03-29,0.0009344024271841032
2018-03-30,-0.0019546216492948784
2018-04-02,-0.0067945832506952145
2018-04-03,-0.005686350719584982
2018-04-04,0.003708856374729926
2018-04-09,0.004520824190382227
2018-04-10,-0.0031941510912842416
2018-04-11,0.00094064553450127
2018-04-12,-0.0026628552210282153
2018-04-13,-0.008386268669511036
2018-04-16,-0.005998720214254226
2018-04-17,-0.007081445931150758
2018-04-18,-0.0012117926502641313
2018-04-19,-0.003498384387767402
2018-04-20,-0.006529107725839197
2018-04-23,-0.008725324542437473
2018-04-24,-0.008556149723057974
2018-04-25,-0.00985064953349165
2018-04-26,-0.003543142160750627
2018-04-27,0.002083072218937103
2018-05-02,0.005943576797804745
2018-05-03,-0.00015031180489724454
2018-05-04,-0.00389586353570711
2018-05-07,-0.003885710920274772
2018-05-08,-0.008653972427535062
2018-05-09,-0.006053321237726143
2018-05-10,-0.0037056780894922665
2018-05-11,8.171490562217804e-05
2018-05-14,0.0014923932443589253
2018-05-15,-0.0032601933323445943
2018-05-16,-0.0040502540024518995
2018-05-17,0.00106056232383216
2018-05-18,0.00714861707825043
2018-05-21,0.01878320438483957
2018-05-22,0.02414134129620359
2018-05-23,0.019126463855186536
2018-05-24,0.010915039880098872
2018-05-25,0.007827366481860778
2018-05-28,0.010549545142787204
2018-05-29,0.009818068518375122
2018-05-30,0.005877975736912148
2018-05-31,0.002383123048591354
2018-06-01,0.005488258721982629
2018-06-04,0.021373512161947435
2018-06-05,0.016010005993101727
2018-06-06,0.019136506889279085
2018-06-07,0.02250496416932178
2018-06-08,0.020788839098047095
2018-06-11,0.022977821496467085
2018-06-12,0.01955151660041078
2018-06-13,0.019141446393076966
2018-06-14,0.018691428252391153
2018-06-15,0.023093082853257424
2018-06-19,0.008563361660239202
2018-06-20,0.00707251441239988
2018-06-21,-0.0002815687220527885
2018-06-22,-0.0024073503298797233
2018-06-25,-6.57750933897392e-05
2018-06-26,-0.010318068117528334
2018-06-27,-0.0026163722581846746
2018-06-28,-0.005688002556879394
2018-06-29,-0.0008315144355112633
2018-07-02,-0.005505995643201931
2018-07-03,-0.004572429769830887
2018-07-04,-0.0014359773119993063
2018-07-05,0.0017142277565658781
2018-07-06,0.001115267149903166
2018-07-09,-0.005595595820355015
2018-07-10,-0.005694975457245
2018-07-11,-0.010108236889600157
2018-07-12,-0.012791780754777873
2018-07-13,-0.01761895622103845
2018-07-16,-0.025971102671726427
2018-07-17,-0.0196394728703409
2018-07-18,-0.016519637000823935
2018-07-19,-0.015502202039883612
2018-07-20,-0.01552515881929684
2018-07-23,-0.007838060602701757
2018-07-24,-0.010031663807282098
2018-07-25,-0.009966587389673542
2018-07-26,-0.006261657118692161
2018-07-27,0.0037774680765268083
2018-07-30,0.00760580828755093
2018-07-31,0.007515871697264153
2018-08-01,0.0024981159057658325
2018-08-02,0.0017461111766703744
2018-08-03,-0.004069841103460564
2018-08-06,-0.006993306125535947
2018-08-07,1.961444677271544e-05
2018-08-08,0.003513722814022029
2018-08-09,0.0017328141396739279
2018-08-10,0.0009814296753217835
2018-08-13,0.0015079672488037543
2018-08-14,0.001937395756924617
2018-08-15,0.0020188749864834717
2018-08-16,0.001317702816210362
2018-08-17,0.011179203237690716
2018-08-20,0.005241735625278767
2018-08-21,0.004324172070803395
2018-08-22,0.0061533693142089485
2018-08-23,0.01259332983947132
2018-08-24,0.0044813545217182406
2018-08-27,0.009244475106010397
2018-08-28,0.0045547888035884915
2018-08-29,0.0035867187302785625
2018-08-30,-0.0013090728864077056
2018-08-31,-0.0032614913188485743
2018-09-03,-0.0005946887288181442
2018-09-04,-0.0056200684479433445
2018-09-05,-0.014196368180022196
2018-09-06,-0.017961647925697884
2018-09-07,-0.016282680058741117
2018-09-10,-0.014384450453872079
2018-09-11,-0.013579568852874667
2018-09-12,-0.010666660813468246
2018-09-13,-0.0012742627008315716
2018-09-14,0.0015174697267283138
2018-09-17,0.003155589786820916
2018-09-18,-0.002200702436528848
2018-09-19,0.023425127039171385
2018-09-20,0.024649897470564987
2018-09-21,0.025471691035743135
2018-09-25,0.023950112537772822
2018-09-26,0.016745263049977144
2018-09-27,0.020198648056862986
2018-09-28,0.021627365625345008
2018-10-08,0.014670670336879691
2018-10-09,0.014302254345781043
2018-10-10,0.009230170785916439
2018-10-11,-0.008312858008984014
2018-10-12,-0.01401972235007809
2018-10-15,-0.01928594979378144
2018-10-16,-0.02823329293429345
2018-10-17,-0.03100194579454456
2018-10-18,-0.04260919927093808
2018-10-19,-0.03871796461909543
2018-10-22,-0.024735274486479185
2018-10-23,-0.029289051153620342
2018-10-24,-0.01802262793601924
2018-10-25,-0.014620484440393936
2018-10-26,-0.015871507856831064
2018-10-29,-0.017134674675395062
2018-10-30,-0.020317346738669154
2018-10-31,-0.019516372858421116
2018-11-01,-0.018728051352338668
2018-11-02,-0.01684675575912274
2018-11-05,-0.013773081297759657
2018-11-06,-0.003973085679271149
2018-11-07,-0.0003254878159705977
2018-11-08,-0.005673900998138888
2018-11-09,0.0016308475992416233
2018-11-12,0.0030904405040568083
2018-11-13,0.00424866304717714
2018-11-14,0.005792925935490389
2018-11-15,0.00832292417012304
2018-11-16,0.007575722192007084
2018-11-19,0.008547795773520401
2018-11-20,0.003304984499665791
2018-11-21,0.003650288734783862
2018-11-22,0.009306678043999001
2018-11-23,0.002034537364313322
2018-11-26,0.0045875379469260775
2018-11-27,0.0034545715464866116
2018-11-28,0.0017142980165648478
2018-11-29,0.0029950627425385148
2018-11-30,0.00572664430601386
2018-12-03,0.0014907102468860595
2018-12-04,0.0026829722267304665
2018-12-05,0.006756560731118112
2018-12-06,0.000184016905281581
2018-12-07,0.007254832250317492
2018-12-10,0.004979236825932844
2018-12-11,0.006055088939798423
2018-12-12,0.0050879410736762234
2018-12-13,0.00444808292912089
2018-12-14,0.003803609674472609
2018-12-17,0.009771341191976611
2018-12-18,0.00444945083204408
2018-12-19,0.0017662230465734542
2018-12-20,-0.0012711419563116327
2018-12-21,-0.004721997876338059
2018-12-24,-0.0014183635552785633
2018-12-25,-0.0011181987913199375
2018-12-26,-0.0030653203515576093
2018-12-27,-0.005484353088668396
2018-12-28,-0.01051551843557669
2019-01-02,-0.010912939575997836
2019-01-03,-0.007742976078773018
2019-01-04,-0.0019278342236037187
2019-01-07,-0.0028407591048784687
2019-01-08,0.0033420455781873193
2019-01-09,-0.0021243575418569216
2019-01-10,-0.0033212715209665067
2019-01-11,0.00289498148874932
2019-01-14,0.00041724133284209985
2019-01-15,0.009296832506456165
2019-01-16,0.010027551989031118
2019-01-17,0.012134390435064034
2019-01-18,0.009239193647089796
2019-01-21,0.010296703526632523
2019-01-22,-0.0004354195808876013
2019-01-23,-0.0028019709443805815
2019-01-24,0.005045904846940966
2019-01-25,-0.0006791912798392516
2019-01-28,-0.012799856399372492
2019-01-29,-0.014397878591850453
2019-01-30,-0.020850545900450324
2019-01-31,-0.018073604158428055
2019-02-01,-0.013300907483235994
2019-02-11,-0.023688339825047547
2019-02-12,-0.025912028454375666
2019-02-13,-0.03126044237309724
2019-02-14,-0.035884539840060785
2019-02-15,-0.03389355546812989
2019-02-18,-0.028528771495845942
2019-02-19,-0.021756190478850163
2019-02-20,-0.030449627512228863
2019-02-21,-0.038802340206905386
2019-02-22,-0.02114919272170039
2019-02-25,-0.025485337568903203
2019-02-26,-0.014431498631771893
2019-02-27,-0.010100053957783276
2019-02-28,-0.0033198147436723224
2019-03-01,-0.010715087992592347
2019-03-04,-0.013272103305754353
2019-03-05,-0.009757182220338091
2019-03-06,-0.0026861367006329046
2019-03-07,2.477733340278121e-06
2019-03-08,-0.00598386074261522
2019-03-11,-0.0035048136151024575
2019-03-12,0.0038814714944375994
2019-03-13,-0.0013544741184943893
2019-03-14,0.001991471722820555
2019-03-15,0.011183264397145135
2019-03-18,0.013890783094406965
2019-03-19,0.005884992742708879
2019-03-20,0.0028760199206766188
2019-03-21,0.004443266159645708
2019-03-22,-0.00028049243041574495
2019-03-25,3.3960628043255836e-05
2019-03-26,-0.0023328186963107594
2019-03-27,-0.001639257106056613
2019-03-28,0.0007432716877839932
2019-03-29,-0.008458523059182814
2019-04-01,-0.009000946587921867
2019-04-02,-0.0024671940803703413
2019-04-03,-9.57300542904077e-05
2019-04-04,-0.00039633386228171696
2019-04-08,0.0017260113476841588
2019-04-09,0.0030537778928960355
2019-04-10,0.003814284127489605
2019-04-11,0.0019286935867218885
2019-04-12,0.0008355746101275097
2019-04-15,0.0015149808704417386
2019-04-16,0.004620645624949141
2019-04-17,-0.005176368573525908
2019-04-18,-0.004900408608519549
2019-04-19,-0.0022878059953952284
2019-04-22,0.002181746557334649
2019-04-23,0.002948856626232177
2019-04-24,-0.002219796120139353
2019-04-25,0.0009672467761000433
2019-04-26,0.004067949828730162
2019-04-29,0.0010676347850444787
2019-04-30,-0.0013459875766505605
2019-05-06,0.0032772456647936384
2019-05-07,0.0015392336562061043
2019-05-08,0.003332761674822141
2019-05-09,0.0016338671667452398
2019-05-10,0.0022260186911272004
2019-05-13,0.0039221361288830706
2019-05-14,0.00370109911720589
2019-05-15,0.008505849670577569
2019-05-16,0.015539764568224975
2019-05-17,0.011449800001800077
2019-05-20,0.01631615352897035
2019-05-21,0.008542137963519091
2019-05-22,0.0025682157938611352
2019-05-23,4.4117121992981456e-05
2019-05-24,-0.0060331489531438645
2019-05-27,-0.0020833278641990208
2019-05-28,-0.006351172647204278
2019-05-29,-0.006483318503157358
2019-05-30,-0.005374253746107019
2019-05-31,-0.007534838754407854
2019-06-03,-0.010302463844512388
2019-06-04,-0.009233913520243012
2019-06-05,-0.0077179420449902045
2019-06-06,-0.01022758528474331
2019-06-10,-0.00431241602583491
2019-06-11,-0.005863649140899468
2019-06-12,-0.001311925141328562
2019-06-13,-0.002756381143126603
2019-06-14,-0.0012901120455378681
2019-06-17,0.0005070574866397684
2019-06-18,-0.000716111612867866
2019-06-19,-0.0020488427590728414
2019-06-20,-0.0019833010779147335
2019-06-21,0.004583045063524421
2019-06-24,0.012812581748632187
2019-06-25,0.006825425965030062
2019-06-26,0.009752970865182885
2019-06-27,0.009139783598685097
2019-06-28,-0.0005574537737225872
2019-07-01,0.005112750577092168
2019-07-02,0.001922510132774162
2019-07-03,0.008941392484224035
2019-07-04,0.011458376057392295
2019-07-05,0.004958758813456388
2019-07-08,0.004268122231328751
2019-07-09,0.003164941303210889
2019-07-10,-0.0038020676898033994
2019-07-11,-0.002449028693471725
2019-07-12,-0.000720390548399126
2019-07-15,-0.000755492516717967
2019-07-16,-0.0009364038003422687
2019-07-17,0.0026918082547874892
2019-07-18,0.0002798172364307395
2019-07-19,0.006082173447716952
2019-07-22,0.002213993954287348
2019-07-23,0.012336567086340379
2019-07-24,0.006989480077077406
2019-07-25,0.00782752864177418
2019-07-26,0.0070263729296645705
2019-07-29,-0.00016321075950904984
2019-07-30,0.002823650931944914
2019-07-31,0.0007979476193530344
2019-08-01,0.005365497755569975
2019-08-02,0.007031098293353329
2019-08-05,0.0034798617564291527
2019-08-06,-0.002701615986087015
2019-08-07,0.0023277109182384265
2019-08-08,0.0018382374601335592
2019-08-09,0.0018281412203909123
2019-08-12,-0.004968603742336923
2019-08-13,-0.007291085348279366
2019-08-14,-0.0040590371536953496
2019-08-15,-0.011434038271202498
2019-08-16,-0.008486461013943267
2019-08-19,-0.0076025546082321965
2019-08-20,-0.007085879160058569
2019-08-21,-0.010169416000099137
2019-08-22,-0.011412577485648587
2019-08-23,-0.008585821890058205
2019-08-26,-0.017616350222137485
2019-08-27,-0.011526959738781602
2019-08-28,-0.014027774188413285
2019-08-29,-0.016023952084601688
2019-08-30,-0.021142014096671324
2019-09-02,-0.007679720437560881
2019-09-03,-0.006489081949608197
2019-09-04,-0.007072328019719314
2019-09-05,-0.004764013776750181
2019-09-06,-0.0014838842197922454
2019-09-09,-0.0009251075792729834
2019-09-10,0.007706479483866787
2019-09-11,0.01320660706663501
2019-09-12,0.014330591836901736
2019-09-16,0.007667922783518917
2019-09-17,0.005134175706471202
2019-09-18,0.0020777798143330507
2019-09-19,0.005200676131551788
2019-09-20,-0.00040892831017731897
2019-09-23,-0.005291948134562002
2019-09-24,-0.004381097346184636
2019-09-25,-0.005140135197043305
2019-09-26,-0.0005632553919827955
2019-09-27,-0.005551987425171545
2019-09-30,-0.005476978976583759
2019-10-08,-0.0030125140697067846
2019-10-09,-0.002324789276421658
2019-10-10,-0.006052192725778913
2019-10-11,0.0011039830807020147
2019-10-14,-0.0029304109984453542
2019-10-15,0.00102553579651137
2019-10-16,0.007933966854592594
2019-10-17,0.00672776595323088
2019-10-18,0.008705451073094578
2019-10-21,0.007643223800021965
2019-10-22,0.003584021353429622
2019-10-23,0.004201599868587105
2019-10-24,0.006645080933640749
2019-10-25,0.0022763479875123754
2019-10-28,0.011056267812423786
2019-10-29,0.008053607510309186
2019-10-30,0.01374410109030847
2019-10-31,0.01517136680353338
2019-11-01,0.00732813517268577
2019-11-04,0.003557718188385281
2019-11-05,0.0074785844993798
2019-11-06,0.00400134036514214
2019-11-07,0.003963956631536829
2019-11-08,-0.0034566792598976492
2019-11-11,-0.02029442881121602
2019-11-12,-0.01960554274236364
2019-11-13,-0.019651950141354558
2019-11-14,-0.017138360513111746
2019-11-15,-0.016722068445059867
2019-11-18,-0.016274987204263514
2019-11-19,-0.00842352360594038
2019-11-20,-0.007919715511339267
2019-11-21,-0.008762882701331763
2019-11-22,0.0011586453629116415
2019-11-25,0.010611163728078432
2019-11-26,0.009928176425411436
2019-11-27,0.012290125910261261
2019-11-28,0.013906147122294849
2019-11-29,0.006966973914944108
2019-12-02,0.010407413857699166
2019-12-03,0.0041062734928971265
2019-12-04,0.007891738340304558
2019-12-05,0.003992651161844239
2019-12-06,0.0006068102342539974
2019-12-09,-0.0006497757390413368
2019-12-10,-0.004686557442072643
2019-12-11,0.004494641318755772
2019-12-12,-0.005960813991520764
2019-12-13,-0.008750989313233518
2019-12-16,-0.01247157169982807
2019-12-17,-0.009733011701735142
2019-12-18,-0.00993482444874462
2019-12-19,-0.008689278263241534
2019-12-20,-0.01573812164459317
2019-12-23,-0.010813556125401323
2019-12-24,-0.0054188869037249746
2019-12-25,-0.006280112386360608
2019-12-26,0.003895761065872024
2019-12-27,0.0154693981758151
2019-12-30,0.011562326430298826
2019-12-31,0.02042049191316071
2020-01-02,0.013479210634304087
2020-01-03,0.018338445482580866
2020-01-06,0.02572977659218085
2020-01-07,0.03409934876072833
2020-01-08,0.038365631901616765
2020-01-09,0.041371531278173536
2020-01-10,0.05233191863639913
2020-01-13,0.0476010047947228
2020-01-14,0.04141496809079696
2020-01-15,0.03259983753902329
2020-01-16,0.038336695279842625
2020-01-17,0.025598298842153474
2020-01-20,0.0293243010614582
2020-01-21,0.031292632773961555
2020-01-22,0.03397471303461943
2020-01-23,0.023527725688271172
2020-02-03,0.008085638155203051
2020-02-04,0.008661099304983488
2020-02-05,0.015313241059794994
2020-02-06,0.01945927164744137
2020-02-07,0.021349698828186284
2020-02-10,0.03782563831816315
2020-02-11,0.04018236880612247
2020-02-12,0.026739842625623907
2020-02-13,0.02038032970481969
2020-02-14,0.026814124879898742
2020-02-17,0.01832516725422425
2020-02-18,0.013681074656479003
2020-02-19,0.008716782822284103
2020-02-20,0.0014165672555023492
2020-02-21,0.0007703280442589201
2020-02-24,-0.007533590629960361
2020-02-25,-0.011376955219512316
2020-02-26,0.0026527597300157815
2020-02-27,0.009060003857109436
2020-02-28,0.02536766775701161
2020-03-02,0.025603930509204953
2020-03-03,0.021678912344888057
2020-03-04,0.03346562329206919
2020-03-05,0.04824081665852732
2020-03-06,0.03245670014989427
2020-03-09,0.02731487779389251
2020-03-10,0.0096655138893883
2020-03-11,0.0021873361337052394
2020-03-12,-0.0019856651118874344
2020-03-13,-0.020678373783452105
2020-03-16,-0.02152761728282456
2020-03-17,-0.02189281149326596
2020-03-18,-0.01778082791479381
2020-03-19,-0.02712560045444739
2020-03-20,-0.012579237048569173
2020-03-23,-0.012527282223922478
2020-03-24,0.0034721310678399626
2020-03-25,0.0024716176345368854
2020-03-26,-0.0048795537264043
2020-03-27,-0.0015166932676548995
2020-03-30,0.0021500242942863353
2020-03-31,0.007193078982593967
2020-04-01,0.006660331997262077
2020-04-02,0.007780973502505735
2020-04-03,0.00783291430781224
2020-04-07,0.010857000118876182
2020-04-08,0.015722745325889638
2020-04-09,0.013711710684587217
2020-04-10,0.01573074049837313
2020-04-13,0.02182188646425262
2020-04-14,0.035173312383785196
2020-04-15,0.0280164410805313
2020-04-16,0.023828782344207093
2020-04-17,0.020958146396609582
2020-04-20,0.02256133495204713
2020-04-21,0.020052859242120233
2020-04-22,0.013469835787938853
2020-04-23,0.016495073986635054
2020-04-24,0.019256788196545437
2020-04-27,0.021967725298268816
2020-04-28,0.015440924223291862
2020-04-29,0.01241372609508545
2020-04-30,0.019122825755008243
2020-05-06,0.012599294928226075
2020-05-07,0.009039455391565318
2020-05-08,0.011507387723662884
2020-05-11,0.014662149400193857
2020-05-12,0.012353285612660615
2020-05-13,0.001641257233035015
2020-05-14,-0.007017934382984396
2020-05-15,-0.006407639582999903
2020-05-18,0.0010662296028379134
2020-05-19,-0.005772593724774887
2020-05-20,-0.005219278570002385
2020-05-21,-0.0027872624242435123
2020-05-22,-0.002103413145694677
2020-05-25,-0.003916816952545525
2020-05-26,-0.005627590725943099
2020-05-27,0.008562295074292021
2020-05-28,0.009954705153249588
2020-05-29,0.01233984701934689
2020-06-01,0.010920338351617308
2020-06-02,0.01124279881512542
2020-06-03,0.011563395470269005
2020-06-04,0.0013033004084750492
2020-06-05,0.006056607021134006
2020-06-08,0.01586675935827886
2020-06-09,0.02215023779820715
2020-06-10,0.015868703925438828
2020-06-11,0.020712211645262595
2020-06-12,0.01679488903871017
2020-06-15,0.006123639704242977
2020-06-16,-0.002432364740304248
2020-06-17,-0.010234594846258507
2020-06-18,-0.024495324914415112
2020-06-19,-0.014613017819001595
2020-06-22,-0.038384126918332456
2020-06-23,-0.04623821113115127
2020-06-24,-0.025418771902520634
2020-06-29,-0.027176572315736225
2020-06-30,-0.030634912376739723
2020-07-01,-0.01051513886497818
2020-07-02,-0.009954874756570337
2020-07-03,-0.007980488415124123
2020-07-06,-0.018673203686263795
2020-07-07,-0.016993053527893764
2020-07-08,-0.0172593309910819
2020-07-09,-0.01363514789917628
2020-07-10,-0.02448444664793698
2020-07-13,-0.023395874157336627
2020-07-14,-0.024264978225443646
2020-07-15,-0.01684788420712343
2020-07-16,-0.008396019220723316
2020-07-17,0.005502471387234715
2020-07-20,0.011417726532766286
2020-07-21,0.007925160462760306
2020-07-22,0.011501022061293074
2020-07-23,0.0075147839947706995
2020-07-24,0.009932189326276698
2020-07-27,0.007103259155227037
2020-07-28,0.0017481463982462024
2020-07-29,-0.01360219659204746
2020-07-30,-0.02333404066795069
2020-07-31,-0.0224272075981363
2020-08-03,-0.02509966632713995
2020-08-04,-0.01585450596018443
2020-08-05,-0.028924448540916588
2020-08-06,-0.03072270980433624
2020-08-07,-0.028193724625621995
2020-08-10,-0.023811544748798725
2020-08-11,-0.015455345026273794
2020-08-12,-0.010218818148766752
2020-08-13,0.0011417518481183359
2020-08-14,0.003994715342110851
2020-08-17,-0.004443643777804672
2020-08-18,-0.0016545524380049215
2020-08-19,0.012521298392672124
2020-08-20,0.005382223905635558
2020-08-21,0.007805171893512116
2020-08-24,-0.002723735300933852
2020-08-25,-0.009437423929240792
2020-08-26,-0.009610067172490322
2020-08-27,-0.020396528461506046
2020-08-28,-0.021709123761814046
2020-08-31,-0.022491181309195363
2020-09-01,-0.02090768714090096
2020-09-02,-0.03224310376828264
2020-09-03,-0.02632743556584577
2020-09-04,-0.027159231956392492
2020-09-07,-0.012569056486756297
2020-09-08,0.0003608451943090951
2020-09-09,0.01249074603934707
2020-09-10,0.016985915949573462
2020-09-11,0.01069185808770699
2020-09-14,0.005053751315439061
2020-09-15,0.006604241975305505
2020-09-16,0.01663545017084688
2020-09-17,0.019856453346014723
2020-09-18,0.028864279151988116
2020-09-21,0.030418930055528256
2020-09-22,0.023407985236619383
2020-09-23,0.015514139347838742
2020-09-24,0.010938047565994344
2020-09-25,0.002254356868862127
2020-09-28,0.016588231614604317
2020-09-29,0.004411566783798351
2020-09-30,0.00278438301508065
2020-10-09,-0.010619193957060073
2020-10-12,-0.014475181281044528
2020-10-13,-0.01139322238435505
2020-10-14,-0.009045464165764284
2020-10-15,-0.00020835081525041096
2020-10-16,0.005679680061280824
2020-10-19,0.010678041377457701
2020-10-20,0.0006736756815133838
2020-10-21,0.004055563992221102
2020-10-22,-0.004400188463640901
2020-10-23,-3.106758967502676e-05
2020-10-26,-0.00698211840932364
2020-10-27,-0.017801416064893084
2020-10-28,-0.037919627425085506
2020-10-29,-0.03987720785482903
2020-10-30,-0.040836184437525715
2020-11-02,-0.055973874902904924
2020-11-03,-0.04749614210559982
2020-11-04,-0.05290409579670009
2020-11-05,-0.04246419550097995
2020-11-06,-0.03736912333505693
2020-11-09,-0.04662963687434749
2020-11-10,-0.0442112550731388
2020-11-11,-0.03335203165156188
2020-11-12,-0.03557308058714041
2020-11-13,-0.03978384704376658
2020-11-16,-0.029374364716319767
2020-11-17,-0.01975800625281087
2020-11-18,-0.013741371430078836
2020-11-19,-0.005445757305082725
2020-11-20,-0.00023572009115782958
2020-11-23,0.010348085101897503
2020-11-24,0.01686791608461201
2020-11-25,0.01593155952576409
2020-11-26,0.01882221610376245
2020-11-27,0.021070536340414954
2020-11-30,0.020826064977561915
2020-12-01,0.01946509579197527
2020-12-02,0.01602110857920225
2020-12-03,0.006497756232367694
2020-12-04,0.00240586824355801
2020-12-07,0.005894583490297548
2020-12-08,0.005426581522440933
2020-12-09,0.011287455861180202
2020-12-10,0.009230430641356013
2020-12-11,0.006029057265594809
2020-12-14,0.01048004574559045
2020-12-15,0.003931403237793566
2020-12-16,0.0027386737934230847
2020-12-17,0.004840283104131312
2020-12-18,0.010383658986142037
2020-12-21,0.020324160524596114
2020-12-22,0.013256498235351716
2020-12-23,0.020445252867635343
2020-12-24,0.01046166362344237
2020-12-25,0.0005271258330657169
2020-12-28,0.0019086813611682713
2020-12-29,0.00955961761716842
2020-12-30,0.0002885839973829907
2020-12-31,-0.00223551698299726
2021-01-04,-0.016707159294011183
2021-01-05,-0.04141771739180185
2021-01-06,-0.02569077922298109
2021-01-07,-0.028461959201324386
2021-01-08,-0.005956407460149676
2021-01-11,0.002093114359410734
2021-01-12,-0.01062204259502954
2021-01-13,-0.006545062120227766
2021-01-14,0.010346452299550783
2021-01-15,0.015467532084249828
2021-01-18,0.008501250514282344
2021-01-19,0.03063328046927182
2021-01-20,0.01429132012210126
2021-01-21,0.012220508198655434
2021-01-22,-0.00401922301095136
2021-01-25,-0.010582448230920711
2021-01-26,0.007924703666975695
2021-01-27,0.02003966907981806
2021-01-28,-0.0014225630474426348
2021-01-29,-0.016158814918657192
2021-02-01,-0.04052420622792691
2021-02-02,-0.05057173442947615
2021-02-03,-0.054591607251015306
2021-02-04,-0.07498822420084261
2021-02-05,-0.06286825687215591
2021-02-08,-0.06630579538074138
2021-02-09,-0.07029585134281684
2021-02-10,-0.07601720535780111
2021-02-18,-0.06051528474912375
2021-02-19,-0.04907708676842848
2021-02-22,-0.050474503316038866
2021-02-23,-0.05839618944799431
2021-02-24,-0.03557839021402252
2021-02-25,-0.023080755176298276
2021-02-26,-0.032675685792262904
2021-03-01,-0.04734629198936805
2021-03-02,-0.038274454980432866
2021-03-03,-0.03290536739028924
2021-03-04,-0.020185070222587143
2021-03-05,-0.021244877017330282
2021-03-08,-0.008094665936327435
2021-03-09,1.4106445940516993e-05
2021-03-10,-0.010814665843418041
2021-03-11,-0.011381970711937986
2021-03-12,-0.0027274984046865743
2021-03-15,0.007018822500256188
2021-03-16,0.010745473266348556
2021-03-17,0.005637542153589365
2021-03-18,0.003052872568794711
2021-03-19,0.014246072404298421
2021-03-22,0.0121051106459359
2021-03-23,0.00281416523178531
2021-03-24,0.005069248020291357
2021-03-25,-0.0010638425554095644
2021-03-26,-0.0028352616581523386
2021-03-29,0.003986559418491384
2021-03-30,0.00043783870285812735
2021-03-31,0.00353260600008868
2021-04-01,-0.008311889151964414
2021-04-02,-0.010142952529939459
2021-04-06,-0.0027019948178224474
2021-04-07,0.010290529301026238
2021-04-08,0.004058528946065532
2021-04-09,0.018423326599433198
2021-04-12,0.022524455981429083
2021-04-13,0.01888424268645393
2021-04-14,0.019665471540015737
2021-04-15,0.01797337284426386
2021-04-16,0.03653516703064242
2021-04-19,0.023922792813443387
2021-04-20,0.017283027680223967
2021-04-21,0.013669772452940989
2021-04-22,0.014859662873737889
2021-04-23,0.003873683562613116
2021-04-26,0.007287256490459671
2021-04-27,0.0036271507383847613
2021-04-28,0.009581080359492969
2021-04-29,0.009000447767394643
2021-04-30,0.005996756332301622
2021-05-06,0.013356819606394957
2021-05-07,0.021962588147687992
2021-05-10,0.02008230789110981
2021-05-11,0.013065208990889355
2021-05-12,0.004424940437585921
2021-05-13,0.009508130684693805
2021-05-14,0.0044729387527426764
2021-05-17,0.0025258848856900377
2021-05-18,0.011109559095124684
2021-05-19,0.002686259382085776
2021-05-20,0.002017006608704016
2021-05-21,0.010249685988195027
2021-05-24,0.00782062700141483
2021-05-25,-0.0003580367267375516
2021-05-26,0.0048957150111730895
2021-05-27,0.0060498959437737905
2021-05-28,0.0038765320205242414
2021-05-31,-0.0008487725022845961
2021-06-01,-0.01174794637205125
2021-06-02,0.0058891169722416255
2021-06-03,0.0054081382834842325
2021-06-04,0.0055911001701073985
2021-06-07,0.004743944411044357
2021-06-08,0.011528565038321217
2021-06-09,0.007678614632198825
2021-06-10,0.006093921450685483
2021-06-11,0.008191822868650332
2021-06-15,0.010444917269503539
2021-06-16,0.031213635263841882
2021-06-17,0.018998681051155077
2021-06-18,0.008067410229307063
2021-06-21,0.010237320225402849
2021-06-22,0.009406335683718322
2021-06-23,0.01991631214887368
2021-06-24,0.03237968932485823
2021-06-25,0.02342460831942339
2021-06-28,0.02619949270087638
2021-06-29,0.017456513884832034
2021-06-30,0.013350814825692255
2021-07-01,0.02130827766728874
2021-07-02,0.0226995483270524
2021-07-05,0.019392096053665576
2021-07-06,0.03437295745805885
2021-07-07,0.0329855329300247
2021-07-08,0.015732127036973628
2021-07-09,0.0209162226247588
2021-07-12,0.019152933103531798
2021-07-13,0.03558939827035363
2021-07-14,0.034838916277471266
2021-07-15,0.03653117491975669
2021-07-16,0.04550568209534651
2021-07-19,0.03472932975213518
2021-07-20,0.018699824440491047
2021-07-21,0.01874564405716314
2021-07-22,0.029828331237055278
2021-07-23,0.023457559588961466
2021-07-26,0.01125705057294199
2021-07-27,0.009683580694886541
2021-07-28,0.0001541259954422891
2021-07-29,-0.013467947810469397
2021-07-30,-0.015106825918796262
2021-08-02,-0.016789603358181325
2021-08-03,-0.015393553121214033
2021-08-04,-0.030027183816612242
2021-08-05,-0.019107914125718044
2021-08-06,-0.02125314359278828
2021-08-09,-0.00391551715016217
2021-08-10,0.006253582645964072
2021-08-11,0.0042357943102148184
2021-08-12,0.005203543369942769
2021-08-13,0.009453055882220871
2021-08-16,0.02774813606145175
2021-08-17,0.025944403228664512
2021-08-18,0.002689799250887314
2021-08-19,-0.010200217315017766
2021-08-20,-0.0203678443104097
2021-08-23,-0.02133363608649787
2021-08-24,-0.02356278724783634
2021-08-25,-0.03565095327940121
2021-08-26,-0.033503233676535016
2021-08-27,-0.03193986815734752
2021-08-30,-0.03849051972842214
2021-08-31,-0.02037265988885721
2021-09-01,0.0018361974609212087
2021-09-02,-0.0028288625729725554
2021-09-03,0.006219758082291754
2021-09-06,0.009852536373232787
2021-09-07,0.002338033290197647
2021-09-08,0.01064963889521735
2021-09-09,-0.002425039877353541
2021-09-10,-0.00431975178119199
2021-09-13,-0.010067025474211184
2021-09-14,-0.01178382156002013
2021-09-15,-0.023042317815929168
2021-09-16,-0.022202730220191334
2021-09-17,-0.01752211931715634
2021-09-22,-0.024638369993236486
2021-09-23,-0.01939286903956978
2021-09-24,-0.012685916817750354
2021-09-27,0.0006588301986115209
2021-09-28,-0.0072769029014185665
2021-09-29,-0.0018585487190752904
2021-09-30,-0.0038149513695702603
2021-10-08,-0.0067069823460806
2021-10-11,0.0075731303090977075
2021-10-12,0.008673443750831834
2021-10-13,0.012908893711866896
2021-10-14,0.001080267155646679
2021-10-15,-0.0014384057416786389
2021-10-18,-0.008687970802480406
2021-10-19,-0.004986530751080888
2021-10-20,-0.004571788129407851
2021-10-21,-0.01258015211582938
2021-10-22,-0.006561146957522304
2021-10-25,-0.004374640609274663
2021-10-26,-0.00813875274107961
2021-10-27,-0.018061118823390274
2021-10-28,-0.009295474104198103
2021-10-29,-0.01019667762081313
2021-11-01,-0.02073800534596336
2021-11-02,-0.025256785782850812
2021-11-03,-0.02258584092255749
2021-11-04,-0.011717218379489483
2021-11-05,-0.004619543736438098
2021-11-08,-0.004887497337946302
2021-11-09,-0.004361373024806155
2021-11-10,0.003031180516308114
2021-11-11,0.005006002445719273
2021-11-12,0.015228318917345834
2021-11-15,0.03701837792108793
2021-11-16,0.04970977189007801
2021-11-17,0.03754865606910281
2021-11-18,0.028706556359618864
2021-11-19,0.02814880462277193
2021-11-22,0.022056064764951637
2021-11-23,0.009464817921478073
2021-11-24,0.010831487417361398
2021-11-25,0.007132618445991085
2021-11-26,0.002713541411714015
2021-11-29,-0.007893559738933407
2021-11-30,-0.011114203481613637
2021-12-01,-0.0034788924844466516
2021-12-02,-0.002873396632507569
2021-12-03,-0.0067116543418897015
2021-12-06,-0.01337848323171455
2021-12-07,-0.005446160692897989
2021-12-08,-0.0034498972200687726
2021-12-09,0.0047683688163123635
2021-12-10,-0.005339373063199249
2021-12-13,-0.0014696041752056029
2021-12-14,-0.0018877289191467014
2021-12-15,-0.0009616689262490728
2021-12-16,0.002640384866145375
2021-12-17,-0.006199137972085368
2021-12-20,-0.013447669432962776
2021-12-21,-0.014752770715946767
2021-12-22,-0.008453217184522018
2021-12-23,-0.013008244976204755
2021-12-24,-0.014674660430856638
2021-12-27,-0.01388298738144045
2021-12-28,-0.024891143005126078
2021-12-29,-0.02772268131867717
2021-12-30,-0.030645529668279325
2021-12-31,-0.018354154264521458
2022-01-04,-0.01518579030368692
2022-01-05,-0.011133217699154138
2022-01-06,-0.02912360040167815
2022-01-07,-0.01358640628482647
2022-01-10,-0.0007688211889613512
2022-01-11,0.002835282005775954
2022-01-12,0.010342566825600377
2022-01-13,0.013949071872244638
2022-01-14,0.009534463532393157
2022-01-17,-0.0027897040198177833
2022-01-18,-0.008811717164769861
2022-01-19,-0.011474888883496522
2022-01-20,-0.0040465982120787
2022-01-21,-0.004671799290940103
2022-01-24,-0.009353341996706115
2022-01-25,-0.0030871619930862224
2022-01-26,-0.01356997750300013
2022-01-27,-0.015348393224620952
2022-01-28,-0.013546596538534714
2022-02-07,0.0013954184751104881
2022-02-08,0.013970066816121568
2022-02-09,0.0193455427482652
2022-02-10,0.03351373788567712
2022-02-11,0.04085373049641777
2022-02-14,0.04264544100367277
2022-02-15,0.02726660619453257
2022-02-16,0.03708825755364206
2022-02-17,0.03217234074185111
2022-02-18,0.03699303398940749
2022-02-21,0.039932733491024164
2022-02-22,0.03706997191615004
2022-02-23,0.041485595475238515
2022-02-24,0.03415142259889548
2022-02-25,0.0354175382914816
2022-02-28,0.04368567967591822
2022-03-01,0.057591181131650335
2022-03-02,0.03490452256910105
2022-03-03,0.023757317396154304
2022-03-04,0.01295623187232825
2022-03-07,0.007644112631377263
2022-03-08,-0.0012321590513165895
2022-03-09,-0.02287736950851713
2022-03-10,-0.01786826791866227
2022-03-11,-0.004698066084211085
2022-03-14,-0.022107393927166284
2022-03-15,-0.049428780540962725
2022-03-16,-0.028957052078704873
2022-03-17,-0.0013313009252900391
2022-03-18,-0.00016619731381018957
2022-03-21,-0.010959418148020778
2022-03-22,-0.004711330275643107
2022-03-23,0.006538736691939814
2022-03-24,0.01090950894088006
2022-03-25,-0.0021490866029966298
2022-03-28,0.0016232667990150502
2022-03-29,-0.00028523917713043235
2022-03-30,0.0077894935476273165
2022-03-31,0.01275329817338744
2022-04-01,0.018917095651336757
2022-04-06,0.018449263582922648
2022-04-07,0.016794391270903833
2022-04-08,0.015244643832660436
2022-04-11,0.01664464449631871
2022-04-12,0.021969624535874463
2022-04-13,0.008844930594117395
2022-04-14,0.013149597607992336
2022-04-15,0.00316861638587896
2022-04-18,0.0014399421456549114
2022-04-19,0.000979593804704082
2022-04-20,0.007286804040541092
2022-04-21,0.0008832388342556105
2022-04-22,-0.001022473989714467
2022-04-25,-0.012228948146969738
2022-04-26,-0.003956762612219833
2022-04-27,-0.0011615776990113041
2022-04-28,-0.003770412843919553
2022-04-29,0.012262743337431827
2022-05-05,0.016136729053568933
2022-05-06,0.0008711881983790373
2022-05-09,0.003436939501707939
2022-05-10,0.0036068794663197106
2022-05-11,0.006447014715961367
2022-05-12,0.010036631192569655
2022-05-13,0.00839395590633937
2022-05-16,0.00047456764705164356
2022-05-17,-0.002227175933017734
2022-05-18,0.0007677988262652126
2022-05-19,-0.0006202560146687207
2022-05-20,0.004310880892390671
2022-05-23,-0.007961542319662979
2022-05-24,-0.023234353037580653
2022-05-25,-0.019390799415488325
2022-05-26,-0.019158282326936324
2022-05-27,-0.0031707822517100387
2022-05-30,0.0004654671553047801
2022-05-31,0.0032496822205962464
2022-06-01,0.0005194218195972294
2022-06-02,-0.006113218072732331
2022-06-06,-0.009060094201409602
2022-06-07,-0.007340377131679329
2022-06-08,0.0032814977953269263
2022-06-09,0.010747983117511042
2022-06-10,0.008586363184561348
2022-06-13,-0.0005188611191263431
2022-06-14,0.0016650212903975836
2022-06-15,0.0018065960278995583
2022-06-16,-0.0028276252929539322
2022-06-17,-0.0003283540331774498
2022-06-20,-0.0017770570669908767
2022-06-21,0.008351576645014146
2022-06-22,0.008471528782083442
2022-06-23,0.00821779341389664
2022-06-24,0.006280622961860035
2022-06-27,0.010003168164695205
2022-06-28,0.007887466509654315
2022-06-29,0.01388636170530494
2022-06-30,0.020102893737716628
2022-07-01,0.02415469201247058
2022-07-04,0.018417569006138577
2022-07-05,0.008652653078602995
2022-07-06,0.000355196138641347
2022-07-07,-0.006702793568536258
2022-07-08,-0.0006102307745367748
2022-07-11,-0.0011808452382586036
2022-07-12,-0.004382885991702974
2022-07-13,-0.005922859819306622
2022-07-14,-0.01659632810771053
2022-07-15,-0.020408738512425386
2022-07-18,-0.007130608132909293
2022-07-19,0.00714542163212134
2022-07-20,0.010782474614205503
2022-07-21,0.00759408869221034
2022-07-22,0.001794827000030104
2022-07-25,0.007170916296573283
2022-07-26,0.017646907518615085
2022-07-27,0.015309305273251913
2022-07-28,0.007333798093690044
2022-07-29,2.3412477057060954e-06
2022-08-01,0.002023375431693766
2022-08-02,-0.0001985128758726605
2022-08-03,0.0013654920242538032
2022-08-04,0.017347345816420136
2022-08-05,0.01207895313875075
2022-08-08,0.013063726772604778
2022-08-09,0.009879498039054878
2022-08-10,-0.0013670291859699864
2022-08-11,-0.004679978333959356
2022-08-12,-0.00476652778937677
2022-08-15,-0.0128442245419148
2022-08-16,-0.02265929291435083
2022-08-17,-0.030970780973024727
2022-08-18,-0.029505638631115914
2022-08-19,-0.02564198768872389
2022-08-22,-0.0247814622471711
2022-08-23,-0.024416045837990084
2022-08-24,-0.010879838369335941
2022-08-25,3.2581444986481967e-06
2022-08-26,-0.005242633592718382
2022-08-29,-0.004424733242299008
2022-08-30,-0.0005921427444195958
2022-08-31,0.0014734227922641244
2022-09-01,-0.001845946886819199
2022-09-02,0.0055655753095524355
2022-09-05,0.005794050169664798
2022-09-06,0.002597366416432191
2022-09-07,0.003100462796005822
2022-09-08,0.0020035644661793653
2022-09-09,0.013068902567995588
2022-09-13,0.0039364479551335235
2022-09-14,0.0010022509718976488
2022-09-15,0.01874198517238667
2022-09-16,0.01120955786755401
2022-09-19,0.006922423838763042
2022-09-20,0.008871044533724413
2022-09-21,0.008876599854026865
2022-09-22,0.001125873393615088
2022-09-23,-0.008276131290427334
2022-09-26,-0.01550673823861959
2022-09-27,-0.004971939943499167
2022-09-28,0.005719354707454872
2022-09-29,-0.007211308794663415
2022-09-30,-0.005468675862676142
2022-10-10,0.009078952883057418
2022-10-11,0.00834475092850044
2022-10-12,0.006531843242861679
2022-10-13,0.0027675934804523225
2022-10-14,0.012389886819230825
2022-10-17,0.01676026528844131
2022-10-18,0.005086662619132484
2022-10-19,-0.002842275484390727
2022-10-20,-0.0009399963021228946
2022-10-21,-0.005797661430290018
2022-10-24,-0.03635622534792725
2022-10-25,-0.03405549689703645
2022-10-26,-0.025591804453345753
2022-10-27,-0.013717630093996092
2022-10-28,-0.03523034459790709
2022-10-31,-0.04421986493057622
2022-11-01,-0.03403481371439531
2022-11-02,-0.03102443176263299
2022-11-03,-0.03769890434048345
2022-11-04,-0.030401674102680756
2022-11-07,-0.02338001187471494
2022-11-08,-0.02423392663274339
2022-11-09,-0.025564848901821712
2022-11-10,-0.023974377652971765
2022-11-11,-0.021746695839075333
2022-11-14,-0.012934588218911807
2022-11-15,-0.012866731227308192
2022-11-16,-0.011550063029969512
2022-11-17,-0.007845067153892776
2022-11-18,-0.006938532935883244
2022-11-21,-0.014573785143009985
2022-11-22,-0.0064965766169213235
2022-11-23,-0.0036089155272453315
2022-11-24,-0.004384065523043667
2022-11-25,-0.00040204128101489073
2022-11-28,0.0008700478187357308
2022-11-29,0.0011280852836165877
2022-11-30,-0.0006531204697638876
2022-12-01,0.003448332947840995
2022-12-02,0.008654502523834161
2022-12-05,0.008400324805293784
2022-12-06,0.01142664356018077
2022-12-07,0.014159301499874478
2022-12-08,0.011921299244995874
2022-12-09,0.010250478335294314
2022-12-12,0.006227638004727781
2022-12-13,0.005591901195414133
2022-12-14,0.004696732041774138
2022-12-15,0.009733557582955198
2022-12-16,0.0015333607955937498
2022-12-19,-0.0026956879064018017
2022-12-20,0.0049644894246717395
2022-12-21,-0.0006432517743634979
2022-12-22,-0.00886991695732298
2022-12-23,-0.009677196968349823
2022-12-26,-0.006139096680984259
2022-12-27,-0.004142679314420965
2022-12-28,-0.008169211154844716
2022-12-29,-0.004265696529230013
2022-12-30,-0.01108194132430388
2023-01-03,-0.010281694210563963
2023-01-04,-0.019106859892919825
2023-01-05,-0.01658730090043421
2023-01-06,-0.014172299352950016
2023-01-09,-0.020278046925927662
2023-01-10,-0.013836305552770177
2023-01-11,-0.015719525892590173
2023-01-12,-0.01295983713045614
2023-01-13,-0.016893900481070794
2023-01-16,-0.01133685724633168
2023-01-17,-0.011288356135059229
2023-01-18,-0.010677515837706465
2023-01-19,-0.007128642074967508
2023-01-20,-0.009918281821293513
2023-01-30,-0.009029655703012517
2023-01-31,-0.009033328493879637
2023-02-01,-0.013386162832825087
2023-02-02,-0.012557310689156326
2023-02-03,-0.009434636435266933
2023-02-06,-0.010013824101411724
2023-02-07,-0.013818513870353013
2023-02-08,-0.015478671840957562
2023-02-09,-0.01676547473326917
2023-02-10,-0.013248376027529703
2023-02-13,-0.01567561717753737
2023-02-14,-0.014176732932412141
2023-02-15,-0.009301579773489757
2023-02-16,-0.011617335465140217
2023-02-17,-0.009237443927930241
2023-02-20,-0.005734049593247607
2023-02-21,-0.0023254415062567892
2023-02-22,-0.003958033689884606
2023-02-23,-0.004271215475562642
2023-02-24,-0.001505666473169489
2023-02-27,0.0025263081351960324
2023-02-28,0.004297866327094432
2023-03-01,-0.004363750087901932
2023-03-02,-0.0023980921571338312
2023-03-03,0.008940284796428593
2023-03-06,0.011357523383862079
2023-03-07,0.01413076207405082
2023-03-08,0.01617126021925724
2023-03-09,0.024100795885559453
2023-03-10,0.026709456087045273
2023-03-13,0.02233530593390596
2023-03-14,0.016029162409796384
2023-03-15,0.01973342710960354
2023-03-16,0.014410532077032565
2023-03-17,0.009497430405915795
2023-03-20,0.01925434364163392
2023-03-21,0.027786940622032078
2023-03-22,0.023689881824366613
2023-03-23,0.017479389060148006
2023-03-24,0.004166239237646849
2023-03-27,0.00806791442381825
2023-03-28,0.02186462902373202
2023-03-29,0.013216047996338952
2023-03-30,0.018163792486672353
2023-03-31,0.0074225876370862115
2023-04-03,-0.0034020411568076656
2023-04-04,-0.00713075319212553
2023-04-06,0.00510140779344408
2023-04-07,-0.004080132127125505
2023-04-10,0.013849736004617155
2023-04-11,0.016783390099338012
2023-04-12,-0.011858474588869579
2023-04-13,-0.012669792225037595
2023-04-14,0.0017545946500346875
2023-04-17,0.012053201157593098
2023-04-18,0.004855697512361968
2023-04-19,0.006667493807214396
2023-04-20,-0.014857433330715892
2023-04-21,-0.009809152978987223
2023-04-24,-0.018237350297490042
2023-04-25,-0.03012683507711259
2023-04-26,-0.016521375104760164
2023-04-27,-0.01531992294518601
2023-04-28,-0.02451585346956776
2023-05-04,-0.01427463667876189
2023-05-05,-0.011006868042584808
2023-05-08,-0.02437977949029857
2023-05-09,-0.02779798320121581
2023-05-10,-0.01840038142112805
2023-05-11,-0.013996163654742926
2023-05-12,-0.0007718663715793415
2023-05-15,0.009154186379894777
2023-05-16,0.0268584328010117
2023-05-17,0.0366636699227221
2023-05-18,0.0244655101647085
2023-05-19,0.018434629328363386
2023-05-22,0.031597566373063546
2023-05-23,0.03200790545095971
2023-05-24,0.030670137033709254
2023-05-25,0.02486080674944384
2023-05-26,0.019443909185997914
2023-05-29,0.012016861364199528
2023-05-30,0.0060352556901172305
2023-05-31,-0.0019115707527203214
2023-06-01,-0.014028719944515967
2023-06-02,0.004333177506373503
2023-06-05,0.003343511357886065
2023-06-06,0.006461907609990658
2023-06-07,6.581895852675324e-05
2023-06-08,-0.005064702142929834
2023-06-09,-0.00949669997921735
2023-06-12,-0.01098621144000059
2023-06-13,-0.013034023991998144
2023-06-14,-0.01828859343670506
2023-06-15,-0.012720036667540981
2023-06-16,-0.016264761256229693
2023-06-19,-0.022310529483352184
2023-06-20,-0.023761724500826246
2023-06-21,-0.02175835340970774
2023-06-26,-0.017311283460041425
2023-06-27,-0.013728867182109914
2023-06-28,-0.013390534209860154
2023-06-29,-0.01803196812183936
2023-06-30,-0.007876379178091702
2023-07-03,3.1382101103646226e-05
2023-07-04,-0.007181608045931875
2023-07-05,-0.003364645185644414
2023-07-06,-0.0181454813817659
2023-07-07,-0.020216866738255602
2023-07-10,-0.013669086710489924
2023-07-11,-0.017242767225819303
2023-07-12,-0.015559429730118193
2023-07-13,-0.018604696413061728
2023-07-14,-0.03312276476056874
2023-07-17,-0.03117208907589071
2023-07-18,-0.022644567272301776
2023-07-19,-0.01855640968733243
2023-07-20,-0.014516102562826528
2023-07-21,-0.004469128046403967
2023-07-24,-0.0030772979550856283
2023-07-25,0.0025731051144191547
2023-07-26,0.003949301586040118
2023-07-27,0.007874630826365074
2023-07-28,0.009730826055275109
2023-07-31,0.00929981923743508
2023-08-01,0.005906667209876353
2023-08-02,-0.0009726723612962992
2023-08-03,0.002074968689731664
2023-08-04,-0.0013839607248916502
2023-08-07,-0.00036120176256538433
2023-08-08,0.009175833252549767
2023-08-09,0.012065060295256655
2023-08-10,0.011809273695771741
2023-08-11,0.009392025701680996
2023-08-14,0.010172770653559468
2023-08-15,0.002627835064511098
2023-08-16,0.006594652909315366
2023-08-17,0.004634161881584876
2023-08-18,0.005065178705621726
2023-08-21,0.0053171245226967465
2023-08-22,-0.00485882677140919
2023-08-23,-0.002358532839109879
2023-08-24,0.003784035296064569
2023-08-25,0.004867261641057189
2023-08-28,5.027070966082906e-05
2023-08-29,0.0019383090256536051
2023-08-30,-0.0007403533629399515
2023-08-31,-0.0018659664177765687
2023-09-01,-0.002774896522045149
2023-09-04,-0.0036174012454157113
2023-09-05,-0.0027325866446097254
2023-09-06,-0.008573442768162687
2023-09-07,-0.004934457163104488
2023-09-08,-0.0016734311355717357
2023-09-11,-0.005552716314045409
2023-09-12,0.000491795822351232
2023-09-13,-0.0006392361899634803
2023-09-14,0.005459212848039648
2023-09-15,0.00986591057917996
2023-09-18,0.012768533965823253
2023-09-19,0.010727294542874041
2023-09-20,0.003724716232996122
2023-09-21,0.0035086899887979226
2023-09-22,0.00024275686437972774
2023-09-25,0.003012300734929637
2023-09-26,-8.48562989524855e-05
2023-09-27,0.012266161259294021
2023-09-28,0.005567091392218067
2023-10-09,0.004592466099358004
2023-10-10,0.005337631948365264
2023-10-11,0.007605663821405886
2023-10-12,0.009318564255159943
2023-10-13,-0.00228684068329936
2023-10-16,0.00014251104249172943
2023-10-17,0.0004034845389610797
2023-10-18,-0.0003911722475140756
2023-10-19,-0.006595396588367409
2023-10-20,-0.0014332272319524976
2023-10-23,-0.0030412624430050106
2023-10-24,-0.001982337973368116
2023-10-25,0.0018018351763470566
2023-10-26,0.0013391188944713306
2023-10-27,0.009009420686074266
2023-10-30,0.00997371639839367
2023-10-31,0.01191544415784242
2023-11-01,0.008243395716899051
2023-11-02,0.007652654627587881
2023-11-03,0.007827746498104218
2023-11-06,0.0034207404343026683
2023-11-07,-0.0018851088787080893
2023-11-08,-0.0060678656042196764
2023-11-09,-0.004355265703506562
2023-11-10,-0.007614626600607366
2023-11-13,-0.005957966425611996
2023-11-14,-0.007529028359268027
2023-11-15,-0.0024721404386135355
2023-11-16,-0.003945982903603873
2023-11-17,-0.0006207233402175903
2023-11-20,0.00133423628739774
2023-11-21,0.004219409790348905
2023-11-22,0.0026013945730212033
2023-11-23,0.004105185531453191
2023-11-24,0.011846864527517702
2023-11-27,0.008885669923647204
2023-11-28,0.0059024564502357865
2023-11-29,0.005402896681017497
2023-11-30,0.009768492446757857
2023-12-01,0.005790718642805299
2023-12-04,0.004017590322499799
2023-12-05,0.00846120328957993
2023-12-06,0.00480162357152553
2023-12-07,0.0010515269520612325
2023-12-08,-0.010613000585065088
2023-12-11,-0.011672599927621187
2023-12-12,-0.014117724719016598
2023-12-13,-0.013255301346511652
2023-12-14,-0.018634468277590195
2023-12-15,-0.016515077796023975
2023-12-18,-0.015233651869243695
2023-12-19,-0.022408588610587553
2023-12-20,-0.018398562987414713
2023-12-21,-0.018264594119337976
2023-12-22,-0.013632630059376597
2023-12-25,-0.012003438660900992
2023-12-26,-0.01283943491739598
2023-12-27,-0.006304014512192863
2023-12-28,-0.009051088762966064
2023-12-29,-0.010255152108845582
2024-01-02,-0.0105788279278268
2024-01-03,-0.005952826737816004
2024-01-04,0.00022576369450402756
2024-01-05,0.0037070839707924637
2024-01-08,0.0025124430112782523
2024-01-09,0.0023842549365898358
2024-01-10,-0.0023579856060501527
2024-01-11,-0.011318562795676312
2024-01-12,-0.008306151569788272
2024-01-15,-0.011988489806549778
2024-01-16,-0.0107721685373473
2024-01-17,-0.019718675135414282
2024-01-18,-0.01804584971257796
2024-01-19,-0.020689200249484244
2024-01-22,-0.029923774038285507
2024-01-23,-0.02685922435901563
2024-01-24,-0.016302107427263693
2024-01-25,-0.0031636861009923523
2024-01-26,-0.006561113000759215
2024-01-29,-0.005162435402804685
2024-01-30,-0.015374566960318733
2024-01-31,-0.009874072545742962
2024-02-01,-0.004930369549249067
2024-02-02,-0.002848329499413174
2024-02-05,0.02577812915485421
2024-02-06,0.017177692092971042
2024-02-07,0.01812053802301357
2024-02-08,0.007292917177524366
2024-02-19,0.008153155371012959
2024-02-20,0.01004050504954461
2024-02-21,0.014435088672027106
2024-02-22,0.008901371534237828
2024-02-23,0.007888964269677957
2024-02-26,-0.0020958744858321013
2024-02-27,-0.020291109144278948
2024-02-28,-0.004422978220296733
2024-02-29,-0.010328141016573594
2024-03-01,-0.008803958034868739
2024-03-04,-0.010998224143728723
2024-03-05,-0.012494184460663584
2024-03-06,-0.003391402328901349
2024-03-07,-0.005728518931589273
2024-03-08,-0.002393340457224509
2024-03-11,-0.0018869322431367755
2024-03-12,-0.000800803659128782
2024-03-13,-0.011906486278102136
2024-03-14,-0.002442165013865535
2024-03-15,-0.011538525742711105
2024-03-18,-0.011309412144403664
2024-03-19,-0.016233544682469202
2024-03-20,-0.017809425744797595
2024-03-21,-0.013360568479755034
2024-03-22,-0.019498355047814157
2024-03-25,-0.018573281605691147
2024-03-26,-0.009310031884854342
2024-03-27,0.0027464727411292858
2024-03-28,-0.007361419879979148
2024-03-29,-0.012783666040433045
2024-04-01,-0.004507171322868243
2024-04-02,-0.0035614989063370538
2024-04-03,-0.0033677570574246786
2024-04-08,-0.01032826966185059
2024-04-09,-0.013526040186453824
2024-04-10,-0.0034335874032273375
2024-04-11,-0.009585714468041663
2024-04-12,-0.015620256875766457
2024-04-15,-0.016789931012098358
2024-04-16,-0.014569264720442232
2024-04-17,-0.03927262114210556
2024-04-18,-0.03527892658119361
2024-04-19,-0.03294388143392486
2024-04-22,-0.023518755089544444
2024-04-23,-0.019070239794299747
2024-04-24,-0.024749831260301905
2024-04-25,-0.025147723169277582
2024-04-26,-0.01787936660532116
2024-04-29,-0.01934619078857018
2024-04-30,-0.019452071237262884
2024-05-06,-0.0004415670369606779
2024-05-07,0.001834390169697108
2024-05-08,-0.0003991884048745332
2024-05-09,0.0008224866960376605
2024-05-10,0.006040725134506885
2024-05-13,0.013419126453642056
2024-05-14,0.01601384253647454
2024-05-15,0.016495767139475082
2024-05-16,0.015351863681882544
2024-05-17,0.01320622059129413
2024-05-20,0.0038671274114526026
2024-05-21,-0.0037753267807233166
2024-05-22,-0.002846354430239898
2024-05-23,0.0013109409655566225
2024-05-24,0.0022504315153643113
2024-05-27,-0.0019490909728151484
2024-05-28,-0.0019429404320421145
2024-05-29,-0.001495471184765295
2024-05-30,0.005833860091263977
2024-05-31,0.004138552038598924
2024-06-03,0.006588426045274534
2024-06-04,0.010185184159978981
2024-06-05,0.01374712208792955
2024-06-06,0.0112047517433393
2024-06-07,0.006296940019406661
2024-06-11,0.007538207093273033
2024-06-12,0.004527314513067305
2024-06-13,0.007773141861405156
2024-06-14,0.010515260406058827
2024-06-17,0.01876726842702245
2024-06-18,0.01891824099980122
2024-06-19,0.01560404749961872
2024-06-20,0.010859759459921476
2024-06-21,0.011391159006605863
2024-06-24,0.018870373097244826
2024-06-25,0.022487857327508222
2024-06-26,0.019863949905495292
2024-06-27,0.011000093047116842
2024-06-28,-0.002332185306631457
2024-07-01,-0.0026678848394962253
2024-07-02,-0.0005800809373595027
2024-07-03,-0.007377405051400205
2024-07-04,-0.011021738386257987
2024-07-05,-0.011735016955021493
2024-07-08,-0.02355542015567275
2024-07-09,-0.021509716406479324
2024-07-10,-0.01551752112820038
2024-07-11,-0.014852631755352445
2024-07-12,-0.006823385616678664
2024-07-15,-0.007224698177474231
2024-07-16,-0.006412439238459161
2024-07-17,-0.004528210573325399
2024-07-18,0.0060589753889267114
2024-07-19,0.0053308766572650185
2024-07-22,-0.004905553435987628
2024-07-23,-0.009767230608704006
2024-07-24,-0.014140988782696635
2024-07-25,-0.009083800339526186
2024-07-26,-0.005387033349791992
2024-07-29,-0.011542767277945084
2024-07-30,-0.010304947897969596
2024-07-31,0.004270148291415761
2024-08-01,-0.0026755585481914312
2024-08-02,0.005303584872354069
2024-08-05,0.023686757163057404
2024-08-06,0.026476903567359725
2024-08-07,0.02656301461435991
2024-08-08,0.033144230392639154
2024-08-09,0.024403336499006834
2024-08-12,0.021389045859264395
2024-08-13,0.021222580488596727
2024-08-14,0.01379248731586169
2024-08-15,0.0071387646418812414
2024-08-16,-0.0020596569582048327
2024-08-19,0.008514135160824393
2024-08-20,-0.0018854816600220314
2024-08-21,-0.014800491603315022
2024-08-22,-0.016644536582297607
2024-08-23,-0.011730094277385198
2024-08-26,-0.010203642083215305
2024-08-27,-0.011910420639224036
2024-08-28,-0.019824626584707062
2024-08-29,-0.007350259126319866
2024-08-30,0.002745134742596314
2024-09-02,-0.004797892613695473
2024-09-03,-0.003287410152726598
2024-09-04,0.00865770282274472
2024-09-05,0.010584142646899492
2024-09-06,-0.0019509872672520343
2024-09-09,-0.0036293222790362775
2024-09-10,-0.01436502146100492
2024-09-11,-0.028884610474092534
2024-09-12,-0.06629190097291737
2024-09-13,-0.09897114360333986
2024-09-18,-0.07833891070255486
2024-09-19,-0.07115609461808545
2024-09-20,-0.04827474140655613
2024-09-23,-0.05023562096167525
2024-09-24,-0.028693565039689534
2024-09-25,-0.017907385510538373
2024-09-26,-0.012239797834056126
2024-09-27,-0.0045896670183867005
2024-09-30,0.007142330872442966
2024-10-08,0.0021225390466947103
2024-10-09,0.009040534069322464
2024-10-10,0.014668392254044243
2024-10-11,0.007915674026044157
2024-10-14,-0.0005059078561770007
2024-10-15,-0.00140713233910688
2024-10-16,-0.003446801519722733
2024-10-17,0.003850343036873087
2024-10-18,-0.00682778317763786
2024-10-21,-0.004712539141176158
2024-10-22,0.003698779288068301
2024-10-23,0.004430827626406474
2024-10-24,0.005182875285125552
2024-10-25,0.0070680977648943585
2024-10-28,0.01934663830063932
2024-10-29,0.015121145170977325
2024-10-30,0.02061334165541554
2024-10-31,0.010394515110165814
2024-11-01,0.010579809589149987
2024-11-04,0.003435346934578662
2024-11-05,-0.003756724054792779
2024-11-06,-0.0017693593618908756
2024-11-07,-0.00528465687947325
2024-11-08,-0.00870369429211243
2024-11-11,-0.026870952793395075
2024-11-12,-0.02962901859586225
2024-11-13,-0.03210234907311116
2024-11-14,-0.029273112866600427
2024-11-15,-0.00584001700231414
2024-11-18,0.006795726049733946
2024-11-19,-0.010940160060346902
2024-11-20,-0.013482438677985858
2024-11-21,-0.008647097440057306
2024-11-22,0.0008487135446084426
2024-11-25,0.00038137899382451046
2024-11-26,0.006655742059488934
2024-11-27,0.0015968090598096236
2024-11-28,0.0032422976111608423
2024-11-29,-0.008988976538312342
2024-12-02,-0.012716497504796132
2024-12-03,-0.004785116047076151
2024-12-04,0.0033067847212579615
2024-12-05,0.002176553439378537
2024-12-06,0.010796160021014177
2024-12-09,0.005703621515839998
2024-12-10,0.005175013304966149
2024-12-11,0.001336857164973183
2024-12-12,0.009915759476678557
2024-12-13,0.005293063898197187
2024-12-16,0.009186360443916824
2024-12-17,0.00028605700961401633
2024-12-18,-0.013424780283524836
2024-12-19,-0.02977340946771281
2024-12-20,-0.03201634266848473
2024-12-23,-0.010411981045568307
2024-12-24,-0.0058251587837337
2024-12-25,-0.006554229995165799
2024-12-26,-0.013115703971122133
2024-12-27,-0.007497087657841892
2024-12-30,-0.0009674110388385379
2024-12-31,0.004042941432671195
2025-01-02,0.005815287395211386
2025-01-03,0.016593815035198814
2025-01-06,0.009141104526835035
2025-01-07,0.002633630513046527
2025-01-08,0.011018114627161546
2025-01-09,0.00995205173913007
2025-01-10,0.011421981724736983
2025-01-13,-0.004351918543555086
2025-01-14,-0.0030386806045486683
2025-01-15,-0.00306681800945479
2025-01-16,-0.004213797787099474
2025-01-17,-0.009386342784464437
2025-01-20,0.0010335348077884637
2025-01-21,-0.008564822537739804
2025-01-22,-0.024046691711946573
2025-01-23,-0.03169593607986274
2025-01-24,-0.024502111363034013
2025-01-27,-0.015333978107103921
2025-02-05,-0.008410014484399465
2025-02-06,-0.012416721688982224
2025-02-07,-0.004255835060259193
2025-02-10,-0.00022108032270717198
2025-02-11,0.0028009979965115464
2025-02-12,-0.00048358374488391073
2025-02-13,0.0034425085550266916
2025-02-14,-0.00881548106499366
2025-02-17,-0.014691286085084273
2025-02-18,-0.007968295750917884
2025-02-19,-0.007985789366253694
2025-02-20,0.006276130983740351
2025-02-21,-0.015051688604074034
2025-02-24,-0.018201476340401007
2025-02-25,-0.026819562947791704
2025-02-26,-0.025465526778739974
2025-02-27,-0.026409981225315966
2025-02-28,-0.00041713993526147977
2025-03-03,0.0016150868337502476
2025-03-04,0.0018095180567089357
2025-03-05,-0.011007157607008678
2025-03-06,-0.028908400958493244
2025-03-07,-0.02988851533584328
2025-03-10,-0.025476061517135704
2025-03-11,-0.03248826277397265
2025-03-12,-0.03431409036765175
2025-03-13,-0.021971246718555673
2025-03-14,-0.026424543177430815
2025-03-17,-0.024037512385558804
2025-03-18,-0.0362758124230176
2025-03-19,-0.02825841055418314
2025-03-20,-0.03394545461756341
2025-03-21,-0.036931286850305584
2025-03-24,-0.063536696302698
2025-03-25,-0.04320292367010534
2025-03-26,-0.033950247492432514
2025-03-27,-0.023415305098969753
2025-03-28,-0.02012507166321905
2025-03-31,-0.021743106861966142
2025-04-01,-0.026048098512292363
2025-04-02,-0.023023011905899945
2025-04-03,-0.014659059924860818
2025-04-07,0.012030279170056113
2025-04-08,0.036383518362172504
2025-04-09,0.03672650580551497
2025-04-10,0.01594939511691785
2025-04-11,0.008068936638233066
2025-04-14,0.002399989434056729
2025-04-15,0.008925913864637517
2025-04-16,0.020694266942605236
2025-04-17,0.023799017223253373
2025-04-18,0.018981562763955073
2025-04-21,0.013261555435133746
2025-04-22,0.009095141639887245
2025-04-23,0.0014092140463008163
2025-04-24,0.0032748077971577923
2025-04-25,-7.400434743453504e-05
2025-04-28,-0.003677170443458992
2025-04-29,-0.001792993201139008
2025-04-30,-0.007350073973362969
2025-05-06,-0.010765687556735728
2025-05-07,-0.007572463524366134
2025-05-08,-0.007443187230786996
2025-05-09,-0.00397391703922839
2025-05-12,-0.003472091585908903
2025-05-13,1.512947262482904e-05
2025-05-14,0.0006160819725422248
2025-05-15,0.014133209692638076
2025-05-16,0.0038306651912109564
2025-05-19,0.006430927985403042
2025-05-20,0.007091198616279453
2025-05-21,0.015679116926871732
2025-05-22,0.01661109244279966
2025-05-23,0.02131229012432606
2025-05-26,0.021496967122375366
2025-05-27,0.01853215524597273
2025-05-28,0.022752668118023775
2025-05-29,0.010623470687761422
2025-05-30,0.02044210482168294
2025-06-03,0.012128443997908286
2025-06-04,0.0105873016656471
2025-06-05,0.003446776639448202
2025-06-06,0.000779791686976972
2025-06-09,-0.00035062731256192865
2025-06-10,0.007584404469115328
2025-06-11,0.013889203618941607
2025-06-12,0.006817373327730964
2025-06-13,0.008299597912439134
2025-06-16,0.004862818339450212
2025-06-17,0.008752152855987693
2025-06-18,-0.00029704447577902707
2025-06-19,0.004770023891009251
2025-06-20,0.006431246681894841
2025-06-23,-0.0009300842024655212
2025-06-24,-0.0038045006159463657
2025-06-25,-0.00744792410838324
2025-06-26,-0.009222155384819564
2025-06-27,-0.0031844694220747906
2025-06-30,-0.0051718904883263465
2025-07-01,0.0048820762092273255
2025-07-02,0.015036807354571753
2025-07-03,0.018064410040000135
2025-07-04,0.01581968128246192
2025-07-07,0.009855353330180512
2025-07-08,0.0007952458024201928
2025-07-09,0.005042327402843001
2025-07-10,0.007560494562406192
2025-07-11,0.006830238417611788
2025-07-14,0.014883997263607458
2025-07-15,0.01182145633258088
2025-07-16,0.005805045686807286
2025-07-17,0.007028750170541574
2025-07-18,0.0054630529131347895
2025-07-21,0.010709075350787179
2025-07-22,0.018564290768267835
2025-07-23,0.016966013305087513
2025-07-24,0.014567009879928976
2025-07-25,0.008139869662931608
2025-07-28,0.003574965696406849
2025-07-29,0.0005709211922054784
2025-07-30,0.010168887299634968
2025-07-31,0.006764546140318441
2025-08-01,0.013934806248733014
2025-08-04,0.018895884635333517
2025-08-05,0.013931478112309659
2025-08-06,0.008247073350865115
2025-08-07,0.009829366697298114
2025-08-08,0.024188478651127304
2025-08-11,0.028840651265339953
2025-08-12,0.01702648833184113
2025-08-13,0.01612074426915855
2025-08-14,0.0366920637723592
2025-08-15,0.03274929594215751
2025-08-18,0.040474675171694174
2025-08-19,0.02783327176743782
2025-08-20,0.026703659571004415
2025-08-21,0.006574434719335437
2025-08-22,0.0009351069355092029
2025-08-25,-0.015015661023016888
2025-08-26,-0.010287337044080943
2025-08-27,-0.010433849669149564
2025-08-28,-0.01675291823105839
2025-08-29,-0.006004361465079518
2025-09-01,-0.016791496350938923
2025-09-02,0.007091302691912911
2025-09-03,0.007224084597738614
2025-09-04,0.05452245257157425
2025-09-05,0.021941545956297374
2025-09-08,0.05415898050957139
2025-09-09,0.06284228785269756
2025-09-10,0.0665723370817195
2025-09-11,0.04838149927631159
2025-09-12,0.03163667571262392
2025-09-15,0.043435901114716645
2025-09-16,0.04530650916998525
2025-09-17,0.054720928742954596
2025-09-18,0.016331563137643695
2025-09-19,0.030773580469419894
2025-09-22,-0.01670029797269716
2025-09-23,-0.012038528075026507
2025-09-24,-0.02797624910505452
2025-09-25,-0.048432961901963105
2025-09-26,-0.040845512276061355
2025-09-29,-0.03496768588566529
2025-09-30,-0.04694665631904713
2025-10-09,-0.05814504919942628
2025-10-10,-0.005289596425129116
2025-10-13,-0.0035243918227634632
2025-10-14,0.026599528207923058
2025-10-15,0.028454443083033423
2025-10-16,0.026065956207495918
2025-10-17,0.02519910071313467
2025-10-20,0.018727507989081352
2025-10-21,-0.00552618450998313
2025-10-22,-0.00216227423961725
2025-10-23,0.01669561316187234
2025-10-24,-0.01490751301056049
2025-10-27,-0.03687240860728125
2025-10-28,-0.042592905519792224
2025-10-29,-0.05651625047366138
2025-10-30,-0.04304341411766108
2025-10-31,-0.039067852930368796
2025-11-03,-0.030658899797788033
2025-11-04,-0.01859874614205954
2025-11-05,-0.017035764856582845
2025-11-06,-0.03167614088462619
2025-11-07,-0.03959379025955642
2025-11-10,-0.026582474125352362
2025-11-11,-0.010836758685630853
2025-11-12,0.0044509380254178325
2025-11-13,-0.0034569175367763216
2025-11-14,0.013686767701097984
2025-11-17,0.015753931739738783
2025-11-18,0.01034602770900976
2025-11-19,0.0083522899939269
2025-11-20,0.016309135886889863
2025-11-21,0.03686556569924609
2025-11-24,0.051322325771409286
2025-11-25,0.046777496486345826
2025-11-26,0.03387298149058625
2025-11-27,0.02817932289586743
2025-11-28,0.028786273156884336
2025-12-01,0.014311839997334815
2025-12-02,0.01076308998658463
2025-12-03,0.025633174885884298
2025-12-04,0.00907570673069702
2025-12-05,0.005572827171938819
2025-12-08,0.006649722803147698
2025-12-09,0.006424404422026121
2025-12-10,0.013542197322029785
2025-12-11,0.01644716603723175
2025-12-12,0.01227866321676933
2025-12-15,0.022843020786055178
2025-12-16,0.03456452528563927
2025-12-17,0.017164088824111075
2025-12-18,0.041391773489286576
2025-12-19,0.04900844008338368
2025-12-22,0.044558831323645826
2025-12-23,0.038168594321904795
2025-12-24,0.03728123565026946
2025-12-25,0.050044634665961776
2025-12-26,0.03268257303297335
2025-12-29,0.03977809371102187
2025-12-30,0.03936086788414168
2025-12-31,0.048269396905624304
2026-01-05,0.03453369151622554
2026-01-06,0.016810328022110427
2026-01-07,0.02466186117880998
2026-01-08,0.024795182316433406
2026-01-09,0.028166633545904197
2026-01-12,0.002893537305010726
2026-01-13,0.031744535967501895
2026-01-14,0.02461071755729106
2026-01-15,0.007292412424966817
2026-01-16,-0.004085992287703864
2026-01-19,-0.017153508331933652
2026-01-20,0.011141206424249015
2026-01-21,-0.019895979010884038
2026-01-22,-0.036545540282064505
2026-01-23,-0.04668925818763694
2026-01-26,-0.02435278285563545
2026-01-27,-0.03384217117430914
2026-01-28,-0.04059793599366063
2026-01-29,-0.01148764950351197
2026-01-30,-0.007900152844725483
2026-02-02,0.015332261366399466
2026-02-03,0.005362704628769234
2026-02-04,0.03325393353247584
2026-02-05,0.04915264314609868
2026-02-06,0.05722066969263996
2026-02-09,0.018889626425571925
2026-02-10,0.018607177158826267
2026-02-11,0.02801794438687899
2026-02-12,0.0030707098603744397
2026-02-13,0.005393559728045075
2026-02-24,0.0032405576774042653
2026-02-25,-0.005258962547964206
2026-02-26,-0.021497037083725717
2026-02-27,-0.026373101293650912
2026-03-02,-0.040207788719880844
2026-03-03,-0.03812709078987054
2026-03-04,-0.03224839535474395
2026-03-05,-0.0405808685969347
2026-03-06,-0.02813442416244188
2026-03-09,-0.029354336125272155
2026-03-10,-0.03064389716832601
2026-03-11,-0.021128571751575863
2026-03-12,-0.019743983922062974
2026-03-13,-0.013473742150716238
2026-03-16,-0.0048198505038855935
2026-03-17,0.00017894302899517517
2026-03-18,-0.007104516329391547
2026-03-19,-0.011345031299394716
2026-03-20,-0.005766205593518019
2026-03-23,0.00213713952467799
2026-03-24,0.01667694998772199
2026-03-25,0.014312766532871616
2026-03-26,0.023375507128194372
2026-03-27,0.03145192127224788
2026-03-30,0.03363680464260446
2026-03-31,0.03719403726525375
2026-04-01,0.0417801303976206
2026-04-02,0.0638657306624976
2026-04-03,0.06307825405810763
2026-04-07,0.054377425647567555
2026-04-08,0.04990003487862607
2026-04-09,0.04216610412778668
2026-04-10,0.03202999893921351
2026-04-13,0.03972646369650288
2026-04-14,0.02180935198582303
2026-04-15,0.034104275126731594
2026-04-16,0.03507403986516506
2026-04-17,0.047354778297725435
2026-04-20,0.05219860313772744
2026-04-21,0.054932736245018855
2026-04-22,0.058564814339225155
2026-04-23,0.06924871777763793
2026-04-24,0.0902369591411499
2026-04-27,0.06122627493868565
2026-04-28,0.07269300125712583
2026-04-29,0.07596138188645696
2026-04-30,0.06511571468140515
2026-05-06,0.05692254581173798
2026-05-07,0.03525538106888882
2026-05-08,0.06219439535286033
2026-05-11,0.06746151799916156
2026-05-12,0.0611866302830409
2026-05-13,0.035558929146774235
2026-05-14,0.06391074531595953
2026-05-15,0.03379958355665597
2026-05-18,-0.004618032927408972
2026-05-19,0.01016069382156034
2026-05-20,0.016156856823049272
2026-05-21,0.04148587880110473
2026-05-22,-0.0004045687162556391
2026-05-25,-0.044151531115166065
2026-05-26,-0.0108718378204022
2026-05-27,-0.01956315036387612
2026-05-28,-0.0321518626024869
2026-05-29,-0.005104675560190317
2026-06-01,0.060836728271419734
2026-06-02,0.06623437318201697
2026-06-03,0.06939782069255289
2026-06-04,0.08934211843174611
2026-06-05,0.12489479805786458
2026-06-08,0.12975730585402664
2026-06-09,0.11657408316440723
2026-06-10,0.1648175857912989
