date,long_short
2015-03-12,-0.007704571734787023
2015-03-13,0.02018053610261511
2015-03-16,0.02077018028520549
2015-03-17,0.022244972963545502
2015-03-18,0.014450008086424847
2015-03-19,0.020717825249003386
2015-03-20,0.002286065139248705
2015-03-23,-0.0043937787991160104
2015-03-24,-0.011067807463328692
2015-03-25,0.010295038590420535
2015-03-26,0.007736790690206271
2015-03-27,-0.008727876439364908
2015-03-30,-0.017918893831143028
2015-03-31,-0.02221164352388294
2015-04-01,-0.04129563762045353
2015-04-02,-0.023105649936298184
2015-04-03,0.01117176553832902
2015-04-07,0.024832881260631323
2015-04-08,0.008550691367522045
2015-04-09,0.0037358829320239227
2015-04-10,0.008741967940878316
2015-04-13,-0.013672955356192805
2015-04-14,-0.019369051103699554
2015-04-15,-0.011981977921381538
2015-04-16,-0.004765562850369734
2015-04-17,-0.00860647890870948
2015-04-20,0.006933349688038104
2015-04-21,0.009972766042910662
2015-04-22,-0.0025621731239077634
2015-04-23,0.0002340074519542549
2015-04-24,0.00940433402023294
2015-04-27,-0.000575252750673428
2015-04-28,0.0020090610243192718
2015-04-29,0.003468065709754241
2015-04-30,0.0017388109156147961
2015-05-04,0.00916281292858926
2015-05-05,0.015703326642924533
2015-05-06,0.011514236133973232
2015-05-07,0.008515393102899477
2015-05-08,0.004740552077936323
2015-05-11,-0.003481967175085242
2015-05-12,-0.0060899748105570865
2015-05-13,0.0026230894415560143
2015-05-14,0.024495805066956033
2015-05-15,0.029051598761020897
2015-05-18,0.026933471672923454
2015-05-19,0.03469986347095724
2015-05-20,0.02754107039856315
2015-05-21,-0.008757466171112671
2015-05-22,-0.010888548474700556
2015-05-25,0.027778908116892962
2015-05-26,0.0195469342230829
2015-05-27,0.020562377739834957
2015-05-28,0.04107458278238236
2015-05-29,0.05223743025670275
2015-06-01,0.02867969212577984
2015-06-02,-0.004289712146654389
2015-06-03,-0.012196600780311906
2015-06-04,0.0006761455915047067
2015-06-05,0.004585095403481911
2015-06-08,0.0031690017220293402
2015-06-09,-0.008179611524819656
2015-06-10,-0.011550389453636411
2015-06-11,-0.021676021883645022
2015-06-12,-0.06273306929155481
2015-06-15,-0.0392194636064653
2015-06-16,-0.033679347478727716
2015-06-17,-0.053922690264689536
2015-06-18,-0.08038858784150474
2015-06-19,-0.07195351507567288
2015-06-23,-0.047413254136898314
2015-06-24,-0.04070075837230927
2015-06-25,-0.04173684518848128
2015-06-26,-0.01483782812794611
2015-06-29,0.021394961248829517
2015-06-30,-0.0628691495794876
2015-07-01,-0.03233495225114266
2015-07-02,-0.0020219299016182093
2015-07-03,0.024510605378601794
2015-07-06,0.023351494342469182
2015-07-07,0.08508665994243034
2015-07-08,0.04447563975210922
2015-07-09,0.03178771567654182
2015-07-10,0.023053221588622407
2015-07-13,-0.001900574513582787
2015-07-14,-0.016755047082555707
2015-07-15,0.023642871235481297
2015-07-16,0.020820227142393843
2015-07-17,0.0012556114230135472
2015-07-20,-0.026889815840773143
2015-07-21,-0.008903576655033586
2015-07-22,-0.014227388014006248
2015-07-23,-0.028005111802149436
2015-07-24,-0.028427084334076695
2015-07-27,-0.010198515748042957
2015-07-28,-0.008967595029215701
2015-07-29,-0.011223437087156542
2015-07-30,-0.008747018772280134
2015-07-31,0.0014459255129387928
2015-08-03,0.027725570543298494
2015-08-04,-0.0046968147693985385
2015-08-05,-0.012971873056341
2015-08-06,-0.0028365366810860146
2015-08-07,-0.00675874157384726
2015-08-10,-0.0272210667451262
2015-08-11,-0.016679211504358044
2015-08-12,0.00038186481364762756
2015-08-13,-0.011456985447127435
2015-08-14,-0.026888066292719746
2015-08-17,-0.030637231845743768
2015-08-18,-0.05084366422367087
2015-08-19,-0.0599204228405287
2015-08-20,-0.04025548055888413
2015-08-21,-0.028294996628511287
2015-08-24,-0.002522391294175894
2015-08-25,0.013639358736282407
2015-08-26,0.006360340367333038
2015-08-27,0.003712290742527183
2015-08-28,0.0018954422613320712
2015-08-31,0.0024135032010294405
2015-09-01,0.023983769029613453
2015-09-02,0.031430234246866015
2015-09-07,-0.008661861330414567
2015-09-08,-0.013002853142058127
2015-09-09,-0.010686146031269415
2015-09-10,-0.0267506130506773
2015-09-11,-0.02434871789225196
2015-09-14,0.011409485462112477
2015-09-15,0.019422253532706053
2015-09-16,0.01058373938217612
2015-09-17,0.02413508900404176
2015-09-18,0.015815931708609947
2015-09-21,0.010118737387196798
2015-09-22,0.012244061498864575
2015-09-23,0.013492061269590162
2015-09-24,-0.007350727288557769
2015-09-25,0.0015224330737366627
2015-09-28,0.00381592871622715
2015-09-29,0.008289925737814147
2015-09-30,0.0011171518302879116
2015-10-08,0.015531369387210336
2015-10-09,0.010325802118621621
2015-10-12,0.008414040536660878
2015-10-13,0.006937367695100928
2015-10-14,-0.0030725304596185485
2015-10-15,0.002165809994018346
2015-10-16,0.0011845059264197315
2015-10-19,-0.0030998097525686153
2015-10-20,-0.00308139241695365
2015-10-21,0.00024404783705053376
2015-10-22,-0.005121721830270537
2015-10-23,-0.0036491396528735122
2015-10-26,-0.005556188112719348
2015-10-27,-0.015576310737873416
2015-10-28,0.021005191488963706
2015-10-29,0.015213275384494171
2015-10-30,0.02021601596822415
2015-11-02,0.0349079194916386
2015-11-03,0.04494971013759107
2015-11-04,0.03044395843287251
2015-11-05,0.030515084606208352
2015-11-06,0.01456229103144498
2015-11-09,0.018217942034917143
2015-11-10,0.006339221496642646
2015-11-11,-0.002060486872063727
2015-11-12,0.0023724251905370315
2015-11-13,0.0015211208675071797
2015-11-16,-0.015627730615355575
2015-11-17,0.004821278618278474
2015-11-18,0.01494895603831182
2015-11-19,0.005424928197199411
2015-11-20,-0.014040903822220493
2015-11-23,-0.01459767083927151
2015-11-24,-0.024132237781636444
2015-11-25,-0.02502862421906994
2015-11-26,-0.008885731797909746
2015-11-27,0.005780810927062983
2015-11-30,0.007513693786992797
2015-12-01,0.011739464150131853
2015-12-02,0.013468237969752113
2015-12-03,0.0014818251008522527
2015-12-04,-0.005224690043501354
2015-12-07,0.02296588721680807
2015-12-08,0.021754316599354777
2015-12-09,0.013879476666895712
2015-12-10,0.010399066068088655
2015-12-11,0.028408040411175138
2015-12-14,0.021746201066993858
2015-12-15,0.025214996652087335
2015-12-16,0.018070935028090044
2015-12-17,0.010974564507704006
2015-12-18,0.011305019859657987
2015-12-21,-0.008846707749393829
2015-12-22,-0.01555346537035407
2015-12-23,-0.014552307605881049
2015-12-24,-0.010603548151995792
2015-12-25,-0.04182590499323072
2015-12-28,-0.010485411149280796
2015-12-29,-0.005566903475055573
2015-12-30,-0.016883303978050226
2015-12-31,-0.017917959496264887
2016-01-04,-0.000525285350292018
2016-01-05,-0.004043075758063681
2016-01-06,-0.026005147227631087
2016-01-07,-0.0032878605850390798
2016-01-08,-0.0067921245043638945
2016-01-11,0.003975203127042186
2016-01-12,-0.006061186060490442
2016-01-13,0.01585808131056901
2016-01-14,0.02187368841453803
2016-01-15,0.019683737042814314
2016-01-18,0.018067059496427607
2016-01-19,-0.011805129431885004
2016-01-20,-0.024018768774693867
2016-01-21,-0.04897500000397736
2016-01-22,-0.05136275761964518
2016-01-25,-0.04542075762348448
2016-01-26,-0.025630749258108338
2016-01-27,0.00026326575564131465
2016-01-28,0.006324082663430158
2016-01-29,0.013677272632909167
2016-02-01,0.016607483854465956
2016-02-02,0.01858691108964572
2016-02-03,0.0073743580062853795
2016-02-04,0.008478961298281528
2016-02-05,0.007334806391075522
2016-02-15,0.008328533827882442
2016-02-16,-0.0020975189833618117
2016-02-17,-0.002492506923801409
2016-02-18,0.0006630448744320804
2016-02-19,-0.010685961534500247
2016-02-22,-0.02215009373908758
2016-02-23,-0.013265032869338167
2016-02-24,-0.014210702572946746
2016-02-25,-0.009055185895546616
2016-02-26,-0.014865469413078659
2016-02-29,-0.004056040504148782
2016-03-01,-0.008744346477420832
2016-03-02,0.005551636288585137
2016-03-03,-0.004449248526658824
2016-03-04,9.524907575007499e-05
2016-03-07,0.0006710696769024068
2016-03-08,-0.011307838943531014
2016-03-09,-0.008080580474806483
2016-03-10,-0.013258140684953153
2016-03-11,0.005712814159660608
2016-03-14,0.016472517823825958
2016-03-15,0.02648971607247859
2016-03-16,0.009545275723985537
2016-03-17,0.016859689381170377
2016-03-18,0.01136944965489846
2016-03-21,-0.008111678435592058
2016-03-22,-0.005851235360039356
2016-03-23,-0.0027556786544686448
2016-03-24,-0.009189846894287762
2016-03-25,-0.005346747506801328
2016-03-28,0.01241102628886918
2016-03-29,0.013541533972324521
2016-03-30,0.0006749462768296185
2016-03-31,-0.001680340619548592
2016-04-01,-0.000745278785959909
2016-04-05,-0.014158128418656839
2016-04-06,-0.01807455064161613
2016-04-07,-0.009628815926787871
2016-04-08,-0.01443263747267266
2016-04-11,-0.007994933531316558
2016-04-12,-0.01076343033310303
2016-04-13,-0.016059046590539125
2016-04-14,-0.020142466248445633
2016-04-15,-0.014133930872478764
2016-04-18,-0.022958297936829207
2016-04-19,-0.0030575189134259533
2016-04-20,-0.0001236308834859823
2016-04-21,0.00562729832758237
2016-04-22,0.0029024017827001362
2016-04-25,0.010631610038263128
2016-04-26,0.0058947512256188
2016-04-27,0.018272020100066066
2016-04-28,0.016177085877253194
2016-04-29,0.012069489269359076
2016-05-03,-0.0001987629993795148
2016-05-04,-0.0037210807701272483
2016-05-05,-0.0051328402389481526
2016-05-06,0.0030043946574474564
2016-05-09,-0.0007181683687625005
2016-05-10,-0.0014888705555521776
2016-05-11,0.014787231601721003
2016-05-12,0.0056748946857586476
2016-05-13,-0.0050967676006087315
2016-05-16,-0.0013799555120537715
2016-05-17,-0.0030992770908173763
2016-05-18,-0.023735308189965564
2016-05-19,-0.025268431858729547
2016-05-20,-0.01241882583204167
2016-05-23,-0.013244306208342018
2016-05-24,-0.015062906365533549
2016-05-25,0.010439587911695181
2016-05-26,0.00770881553424654
2016-05-27,0.005689349877003907
2016-05-30,0.005063058455372194
2016-05-31,0.003555716136126052
2016-06-01,-0.00591050757359337
2016-06-02,0.006804903626369041
2016-06-03,0.002530374598682248
2016-06-06,-0.006139858616331272
2016-06-07,0.012415104961034665
2016-06-08,0.018051819513845442
2016-06-13,-0.006834474545235746
2016-06-14,0.005907521961306128
2016-06-15,-0.0016682215374903666
2016-06-16,-0.009343934367681012
2016-06-17,0.007140384460248495
2016-06-20,0.019807050237375754
2016-06-21,0.00934598490550303
2016-06-22,0.008316939878864667
2016-06-23,0.009126956428080651
2016-06-24,-0.0002656244455718562
2016-06-27,-0.0067728141713016415
2016-06-28,-0.009194744991249181
2016-06-29,-0.00102263971919285
2016-06-30,-0.0006312484100614857
2016-07-01,0.004797474061326065
2016-07-04,-0.0065249884670196545
2016-07-05,-0.00784310634282237
2016-07-06,-0.011653691153192362
2016-07-07,-0.01674945918029951
2016-07-08,-0.021779491037887393
2016-07-11,-0.01938509342574233
2016-07-12,-0.011408453874271344
2016-07-13,-0.0028117388418560946
2016-07-14,-0.004030602164692068
2016-07-15,-0.002558509475007564
2016-07-18,0.006012978539660065
2016-07-19,0.0003507416184829904
2016-07-20,-0.001990012780407195
2016-07-21,-0.00206615768033111
2016-07-22,-0.007183834104234622
2016-07-25,-0.011213467555425214
2016-07-26,-0.005013582966982542
2016-07-27,0.003963176745515929
2016-07-28,0.0004935717258931736
2016-07-29,-0.002392748391907543
2016-08-01,-0.0006469581283852091
2016-08-02,-0.0035740298213924326
2016-08-03,-0.0012883195703875215
2016-08-04,-0.017297401636591048
2016-08-05,-0.01396096684875918
2016-08-08,-0.009349501926792236
2016-08-09,-0.006410824507018076
2016-08-10,-0.010176188422283745
2016-08-11,-0.0009061908776123763
2016-08-12,0.0055922588998037134
2016-08-15,-0.001660237900604363
2016-08-16,-0.002509417064358155
2016-08-17,-0.00014740047481242094
2016-08-18,-0.007108363643353665
2016-08-19,-0.003971392288547992
2016-08-22,-0.0031033276017079026
2016-08-23,-0.003772847676485358
2016-08-24,0.011325711077202162
2016-08-25,0.012495008156397586
2016-08-26,0.0024002245589793258
2016-08-29,-0.0008862900132271187
2016-08-30,-0.002950826247980265
2016-08-31,-0.009046460061451548
2016-09-01,-0.01554265320726027
2016-09-02,-0.012791004048394592
2016-09-05,-0.01018076043234963
2016-09-06,-0.00260551312240739
2016-09-07,0.002001216257592038
2016-09-08,-0.0017800536985578298
2016-09-09,0.004083208225129278
2016-09-12,-0.006936791527796178
2016-09-13,0.003032645193386166
2016-09-14,-0.014166856012893518
2016-09-19,-0.00707076668722279
2016-09-20,-0.00643276905288142
2016-09-21,-0.0006840133645788556
2016-09-22,1.2870809777687509e-07
2016-09-23,0.004697111913679456
2016-09-26,-0.0090494778782895
2016-09-27,-0.006586749531313059
2016-09-28,-0.010149805206716612
2016-09-29,-0.006048309353111675
2016-09-30,-0.008261123372070349
2016-10-10,-0.00010872858999758333
2016-10-11,0.011863673939820846
2016-10-12,-0.001559491327244816
2016-10-13,-0.004753199021075677
2016-10-14,-0.006391046686963008
2016-10-17,-0.002707313932928345
2016-10-18,-0.012240602865272798
2016-10-19,-0.0039952719409997945
2016-10-20,-0.004533597998908407
2016-10-21,-0.005463966605339516
2016-10-24,-0.0005594640214606449
2016-10-25,0.0016280786065123133
2016-10-26,0.0031905005162282674
2016-10-27,0.005053489525951224
2016-10-28,0.0016250661466338848
2016-10-31,0.0022754992415331006
2016-11-01,-0.004449972085696398
2016-11-02,0.006320458595277726
2016-11-03,-0.00040945402787198777
2016-11-04,0.006319134809552113
2016-11-07,0.0017620812856442049
2016-11-08,0.0005592940669253421
2016-11-09,-0.012389319569662244
2016-11-10,-0.008247055260927005
2016-11-11,-0.011503073623452514
2016-11-14,-0.006110911232671974
2016-11-15,-0.003807117046388633
2016-11-16,0.0021551430179323275
2016-11-17,0.0017995912564919333
2016-11-18,0.004976903916479624
2016-11-21,0.0013152433111221773
2016-11-22,0.0006637326781504995
2016-11-23,0.0003303254220155174
2016-11-24,-0.005214008896208074
2016-11-25,-0.0033852791749492735
2016-11-28,0.009769730402161956
2016-11-29,0.011666567770145304
2016-11-30,0.008583050444638418
2016-12-01,0.007320691243623029
2016-12-02,-0.003422281096641608
2016-12-05,0.0006990124996194176
2016-12-06,0.0038501104261601665
2016-12-07,0.007560548423428539
2016-12-08,-0.00027435358228856607
2016-12-09,0.00866263768023275
2016-12-12,-0.011345111007803534
2016-12-13,-0.0013753249707279189
2016-12-14,-0.007394998569727735
2016-12-15,0.0061359882401117
2016-12-16,-0.004921736248222424
2016-12-19,-0.0014428454502737435
2016-12-20,-0.011831947252535675
2016-12-21,-0.013297371525821658
2016-12-22,-0.007871043501474575
2016-12-23,-0.01751070211606065
2016-12-26,-0.02775712583584824
2016-12-27,-0.02183338938617368
2016-12-28,-0.01959737347844063
2016-12-29,-0.023361482474365567
2016-12-30,-0.011182562728966516
2017-01-03,-0.0015845007661659171
2017-01-04,-0.003104986191752183
2017-01-05,0.00036895100920722804
2017-01-06,0.005315017293777158
2017-01-09,0.00908008560556086
2017-01-10,0.007718541445305493
2017-01-11,0.005383548921070609
2017-01-12,0.008675034868894423
2017-01-13,-0.0004163776019392944
2017-01-16,0.0012499654427283943
2017-01-17,0.0005378188900752893
2017-01-18,0.010179823055265543
2017-01-19,0.006252585969262793
2017-01-20,0.0008238061557001167
2017-01-23,0.011183296370360096
2017-01-24,0.002200225076150337
2017-01-25,-0.0035063401382454153
2017-01-26,-0.004626755321389856
2017-02-03,-0.011961093136490995
2017-02-06,-0.016455391241408483
2017-02-07,-0.010022806001445844
2017-02-08,-0.008506502304284246
2017-02-09,-0.005604570285727703
2017-02-10,0.0009791511670153483
2017-02-13,-9.094161622948647e-05
2017-02-14,0.0030595150406876326
2017-02-15,0.003926305564540905
2017-02-16,0.007393607247997225
2017-02-17,0.005997954383188437
2017-02-20,0.006908478899852383
2017-02-21,-0.0006999632282635446
2017-02-22,-0.0035206833790401007
2017-02-23,-0.011774887661751344
2017-02-24,-0.013469264695773264
2017-02-27,-0.026135081145968093
2017-02-28,-0.015303937057400591
2017-03-01,-0.004901271679138228
2017-03-02,-0.0043985341933823075
2017-03-03,0.0005397017077264366
2017-03-06,-0.0020773047479654694
2017-03-07,0.002270123828868089
2017-03-08,0.0017981718252329673
2017-03-09,-1.3584993614217458e-05
2017-03-10,0.0018525686755709592
2017-03-13,0.006509401973436829
2017-03-14,0.004251051248808202
2017-03-15,0.004796053573079094
2017-03-16,0.006900956789567212
2017-03-17,-0.0026801453556757524
2017-03-20,-0.0032138671438175503
2017-03-21,0.0006302832087200531
2017-03-22,0.002337218367834487
2017-03-23,0.007528671884555815
2017-03-24,0.01585818554864052
2017-03-27,0.003916116283093666
2017-03-28,-0.0007299017493770472
2017-03-29,-0.0015391475434037676
2017-03-30,-0.006951450694588758
2017-03-31,-0.010472079320279333
2017-04-05,0.007820175407249063
2017-04-06,0.006840918787015915
2017-04-07,0.007108066587592804
2017-04-10,0.003374507750733651
2017-04-11,0.011283542330212004
2017-04-12,0.012604736226182972
2017-04-13,0.01461513128705167
2017-04-14,0.01423308668772835
2017-04-17,0.00951583593112811
2017-04-18,0.003532770791176568
2017-04-19,-0.00982059367862495
2017-04-20,-0.007891130504442189
2017-04-21,-0.010713149866400014
2017-04-24,-0.005461470884431089
2017-04-25,-0.0005205444457777597
2017-04-26,-0.00955619015133517
2017-04-27,0.007251355744748519
2017-04-28,0.0008520647034447621
2017-05-02,-0.004615634485802236
2017-05-03,0.008653839687812666
2017-05-04,0.011876148432655609
2017-05-05,-0.001391863580217474
2017-05-08,0.004307260966247873
2017-05-09,0.005094870353380668
2017-05-10,-0.0058579912334607385
2017-05-11,-0.007696580945825029
2017-05-12,0.0010465049042951927
2017-05-15,-0.006873699499842992
2017-05-16,0.004801419271416085
2017-05-17,-0.0023968222684066873
2017-05-18,-0.006227868232983222
2017-05-19,-0.005458597728091532
2017-05-22,-0.003855585059287422
2017-05-23,0.0011068179681843517
2017-05-24,-0.003430484925075179
2017-05-25,-0.0014234744633326302
2017-05-26,0.0013615388232538403
2017-05-31,0.0018320809127622215
2017-06-01,-0.005184363300853451
2017-06-02,0.00047187889647521547
2017-06-05,0.008164410595942539
2017-06-06,0.005008361367905122
2017-06-07,0.007094428247124899
2017-06-08,0.006540483462323063
2017-06-09,0.0026477087705731963
2017-06-12,-0.006511746704390947
2017-06-13,-0.007028229482943812
2017-06-14,-0.002696042204029747
2017-06-15,-0.0012124134099148476
2017-06-16,0.006782279632368363
2017-06-19,0.008236537280230364
2017-06-20,0.012289735067586035
2017-06-21,0.012803850868518101
2017-06-22,0.004941202074717941
2017-06-23,0.005695192937244863
2017-06-26,-0.004051649200780485
2017-06-27,-0.0012319177574521651
2017-06-28,-0.00301578756900404
2017-06-29,-0.0016980011612594088
2017-06-30,-0.00788470445780097
2017-07-03,-0.0024593931332814872
2017-07-04,0.002101462847088542
2017-07-05,-0.0037682934246266817
2017-07-06,0.0015894183259627195
2017-07-07,0.017706926116362643
2017-07-10,0.027919871315030098
2017-07-11,0.028673827106875095
2017-07-12,0.023950155197934947
2017-07-13,0.030942042356718408
2017-07-14,0.012249376859948032
2017-07-17,0.00642602052362949
2017-07-18,0.0015185649763627632
2017-07-19,0.0027229796052689508
2017-07-20,-0.0052980238397907315
2017-07-21,-0.0010992424303518625
2017-07-24,-0.012900474274607462
2017-07-25,-0.010657824788811885
2017-07-26,-0.002737116887038595
2017-07-27,0.002404018518570166
2017-07-28,0.000489801433512709
2017-07-31,0.002778863771421756
2017-08-01,0.008204241372697017
2017-08-02,0.0019136738888083462
2017-08-03,0.009200983822387043
2017-08-04,0.006844867039080363
2017-08-07,-0.0004779801560953758
2017-08-08,-0.0034288569469596384
2017-08-09,-0.007325434994775328
2017-08-10,-0.009456726031911417
2017-08-11,-0.0012166301857530933
2017-08-14,-0.001237418420468494
2017-08-15,0.004981010966748283
2017-08-16,0.005588907931985327
2017-08-17,0.003934980183366117
2017-08-18,0.004480339069388245
2017-08-21,0.006090033828552917
2017-08-22,0.0015065632064553865
2017-08-23,-0.0028639925247982336
2017-08-24,-0.003834036139251207
2017-08-25,-0.004830940569953238
2017-08-28,-0.00517828880846663
2017-08-29,-0.0042908728457452345
2017-08-30,-0.004954464416664081
2017-08-31,0.002364745475565402
2017-09-01,-0.0035294429917915927
2017-09-04,-0.00356924995694305
2017-09-05,-0.003065291858494755
2017-09-06,0.0017298453332806694
2017-09-07,-0.004143645149183077
2017-09-08,0.0033507929355738094
2017-09-11,0.004830498405387065
2017-09-12,0.008100117406777468
2017-09-13,-0.0025134878882162124
2017-09-14,0.0033794574950929005
2017-09-15,-0.001678287275557122
2017-09-18,-0.000876690345117585
2017-09-19,-0.0006477719969801617
2017-09-20,-0.0014240070622209087
2017-09-21,0.0013354732345291617
2017-09-22,0.0015536009247789301
2017-09-25,-0.004308918819221113
2017-09-26,-0.004043352312294312
2017-09-27,-0.0029470578751805056
2017-09-28,-0.018222067564353763
2017-09-29,-0.013018112842834648
2017-10-09,-0.001173092363204671
2017-10-10,-0.004508998645184845
2017-10-11,-0.0005933215011648162
2017-10-12,0.01074417255410493
2017-10-13,0.003923868056931073
2017-10-16,-0.0018041361900631779
2017-10-17,0.0033101911129058952
2017-10-18,-0.0033401501677896056
2017-10-19,-0.011639925703534977
2017-10-20,0.0011987659815368718
2017-10-23,0.001499482605191991
2017-10-24,0.002524263607184248
2017-10-25,0.0036837084058398864
2017-10-26,0.013783857452898923
2017-10-27,0.0027884195804643514
2017-10-30,0.0065655696789915854
2017-10-31,0.002007236007358526
2017-11-01,-0.008430865645441495
2017-11-02,-0.003484827220194867
2017-11-03,-0.0042780683681916225
2017-11-06,0.0003226193750642016
2017-11-07,0.006627667729619698
2017-11-08,0.016682008763770205
2017-11-09,0.011897907209439226
2017-11-10,0.007218416952925491
2017-11-13,0.011533554055776453
2017-11-14,0.01077485544940949
2017-11-15,0.002147755676800093
2017-11-16,0.0043311751363450494
2017-11-17,-0.002568396392913542
2017-11-20,-0.00704578745714551
2017-11-21,-0.01453015926087539
2017-11-22,-0.020718364383268427
2017-11-23,-0.013816696316885167
2017-11-24,-0.015570290410639757
2017-11-27,-0.013407750485391497
2017-11-28,-0.0026160288895368446
2017-11-29,0.008201381428283739
2017-11-30,0.0013563165201528043
2017-12-01,0.0050710838199348445
2017-12-04,0.005470084342912237
2017-12-05,-0.0030211830277747484
2017-12-06,0.003343434778447882
2017-12-07,0.00790456855437803
2017-12-08,0.005100364070327075
2017-12-11,-0.0012938864805915537
2017-12-12,-0.0005276095708418241
2017-12-13,0.003391164439610978
2017-12-14,0.004733542922551348
2017-12-15,0.007076481951552946
2017-12-18,0.017317461092664025
2017-12-19,0.010870671851103523
2017-12-20,0.0010667133922107352
2017-12-21,0.0013254422566714684
2017-12-22,-0.0012920906257963768
2017-12-25,-0.01032366752889263
2017-12-26,-0.012129522793365126
2017-12-27,-0.010493183621749157
2017-12-28,-0.018121377600123507
2017-12-29,-0.01141688080572597
2018-01-02,-0.006868600014471213
2018-01-03,0.0022248582411274432
2018-01-04,0.010758796916497611
2018-01-05,0.012387902405028987
2018-01-08,0.023196974934062177
2018-01-09,0.023400423579287205
2018-01-10,0.01462284349875274
2018-01-11,0.014835737336014673
2018-01-12,0.007781017538976617
2018-01-15,-0.004411327003221239
2018-01-16,-0.004387640270539518
2018-01-17,-0.003278187165581429
2018-01-18,-0.009227463854815442
2018-01-19,-0.003235366075399631
2018-01-22,-0.02027802488274303
2018-01-23,-0.01738435865719607
2018-01-24,0.006826830991430222
2018-01-25,0.024364674999519616
2018-01-26,0.02002954801849782
2018-01-29,0.0270501817786397
2018-01-30,0.049117959082083676
2018-01-31,0.02006500583436835
2018-02-01,0.00022469734308479955
2018-02-02,0.007723916963702601
2018-02-05,-0.010638117548388747
2018-02-06,-0.02449628788229974
2018-02-07,-0.0043156769018519656
2018-02-08,0.002938873278639808
2018-02-09,-0.008602063907858538
2018-02-12,-0.0020089260997502925
2018-02-13,-0.014975199900040596
2018-02-14,-0.02310787571124207
2018-02-22,-0.027850610242001382
2018-02-23,-0.017435953802000862
2018-02-26,-0.02275923799089774
2018-02-27,-0.018520151285945377
2018-02-28,-0.010262904660974168
2018-03-01,-0.004109553595534229
2018-03-02,-0.013401757078090219
2018-03-05,-0.01029148272975721
2018-03-06,-0.008407778639894808
2018-03-07,-0.008509941228768903
2018-03-08,-0.009084760413809623
2018-03-09,0.0016558732474302312
2018-03-12,0.007594540836957811
2018-03-13,0.009252169777321496
2018-03-14,0.007797574089710874
2018-03-15,0.0025060258918139997
2018-03-16,0.01560349286947858
2018-03-19,0.006824129192646938
2018-03-20,-0.011328167211110834
2018-03-21,-0.005144886000944909
2018-03-22,0.00371543984601682
2018-03-23,-0.012941968063939586
2018-03-26,-0.01666617795107416
2018-03-27,-0.0011057120441566757
2018-03-28,-0.006627119182924275
2018-03-29,-0.0080775858580267
2018-03-30,-0.008172252760627136
2018-04-02,-0.002692270292060906
2018-04-03,-0.002965542724328138
2018-04-04,-0.0009736539453134227
2018-04-09,0.0069743811076412665
2018-04-10,0.0009412345711652913
2018-04-11,-0.0042391117140655014
2018-04-12,-0.006318574730576466
2018-04-13,0.0009715294280051925
2018-04-16,-0.004980987508625462
2018-04-17,-0.0005942709989084898
2018-04-18,0.005184680202428575
2018-04-19,0.003445112706715013
2018-04-20,-0.009626873699575976
2018-04-23,-0.010620794076611761
2018-04-24,-0.006324166359238276
2018-04-25,-0.0071718712565988
2018-04-26,-0.004881232523383905
2018-04-27,0.0017831615862675537
2018-05-02,0.002148807667113426
2018-05-03,-0.003405317388812199
2018-05-04,-0.0043301107463969875
2018-05-07,0.0028411014138716023
2018-05-08,-0.00029544018037840677
2018-05-09,0.0034941075789108552
2018-05-10,0.0034799180401287816
2018-05-11,-0.0005741717021346192
2018-05-14,-0.0067370760235220505
2018-05-15,-0.009794888269538194
2018-05-16,-0.010263827770735876
2018-05-17,-0.004321801707702244
2018-05-18,0.00043975679728548017
2018-05-21,0.006828819973776941
2018-05-22,0.006172236741042624
2018-05-23,0.008309068448755431
2018-05-24,0.008746415917788124
2018-05-25,0.007155264028395614
2018-05-28,0.011909804674093478
2018-05-29,0.018146790293723673
2018-05-30,0.011470546019153779
2018-05-31,0.002714487724201437
2018-06-01,0.009382435108949153
2018-06-04,-0.0023532055976832056
2018-06-05,-0.004702480106632188
2018-06-06,-0.005396509726986725
2018-06-07,0.0016282363264903867
2018-06-08,-0.003619930348967064
2018-06-11,0.02266299613611871
2018-06-12,0.01907581365143432
2018-06-13,0.024340796868904356
2018-06-14,0.017782907659941997
2018-06-15,0.019524391884209708
2018-06-19,0.004580289885558791
2018-06-20,4.488912338309475e-05
2018-06-21,0.001745420045674035
2018-06-22,-0.00045807743092394007
2018-06-25,0.01491325962856046
2018-06-26,0.003544848071235354
2018-06-27,0.0030261000817902554
2018-06-28,-0.0009464166975921475
2018-06-29,-0.004588790232034158
2018-07-02,-0.011878751158658092
2018-07-03,-0.010698055380568512
2018-07-04,-0.002335597999539204
2018-07-05,-0.002709865942626035
2018-07-06,0.001119496411669963
2018-07-09,0.004059692683226075
2018-07-10,0.004710216513314547
2018-07-11,-6.241791227862628e-05
2018-07-12,0.0023978911609442745
2018-07-13,-0.00012191616745785673
2018-07-16,-0.009553500976894074
2018-07-17,-0.010532708482878888
2018-07-18,-0.012444952001938282
2018-07-19,-0.016329856659954265
2018-07-20,-0.016283413622696682
2018-07-23,-0.01620055029083351
2018-07-24,-0.008864989461086832
2018-07-25,-0.005715652789320087
2018-07-26,-7.891458599440515e-05
2018-07-27,0.00489232053423324
2018-07-30,0.012376372682926413
2018-07-31,0.0024689903600642153
2018-08-01,-0.0002321422153992829
2018-08-02,-0.0022862578739615757
2018-08-03,-0.0014118189595609624
2018-08-06,-0.0050388598777169925
2018-08-07,0.005006966983736472
2018-08-08,0.003180047555679942
2018-08-09,0.0029003116659222575
2018-08-10,-0.005090646887548508
2018-08-13,-0.0019090073064310827
2018-08-14,0.0018988886254100914
2018-08-15,0.00010336941081916804
2018-08-16,-0.005918931222570073
2018-08-17,0.005629471027621598
2018-08-20,-0.0008426086863307369
2018-08-21,0.0007030203905249843
2018-08-22,0.00043625686325669474
2018-08-23,0.00210815464648808
2018-08-24,0.0030692427709473735
2018-08-27,0.006334435829092679
2018-08-28,0.00274241560503514
2018-08-29,0.003538029898204058
2018-08-30,0.007408619623567101
2018-08-31,0.003829999320874776
2018-09-03,0.002044614403726965
2018-09-04,0.002988929203601151
2018-09-05,-0.00017418618628813748
2018-09-06,-0.008267207659881742
2018-09-07,-0.006560135114567667
2018-09-10,-0.0019014198993384719
2018-09-11,-0.010079597796154176
2018-09-12,-0.013711585434068778
2018-09-13,-0.007065587255485165
2018-09-14,-0.005953720793796521
2018-09-17,-0.0067345765820199174
2018-09-18,-0.001459222876914027
2018-09-19,0.005122645335472036
2018-09-20,0.00799607872013262
2018-09-21,0.007823023372451547
2018-09-25,0.006500285097293959
2018-09-26,0.0008640056765584284
2018-09-27,0.018197562318537433
2018-09-28,0.01918076140975994
2018-10-08,0.01131781200296747
2018-10-09,0.01183134417772512
2018-10-10,0.01692313161899081
2018-10-11,0.008185408772827845
2018-10-12,0.00857624426783133
2018-10-15,0.0010133806380559288
2018-10-16,-0.0033245684950535676
2018-10-17,-0.014311188754224893
2018-10-18,-0.030157137137418747
2018-10-19,-0.018052103573340493
2018-10-22,-0.014185683113576219
2018-10-23,-0.02373882789747872
2018-10-24,-0.010608989999114818
2018-10-25,-0.010806930180830697
2018-10-26,-0.015013312857375505
2018-10-29,-0.008291870237191572
2018-10-30,-0.010830216772836632
2018-10-31,-0.010951928331520335
2018-11-01,-0.0031942784066805313
2018-11-02,-0.006373033745688476
2018-11-05,-0.00599475885232811
2018-11-06,-0.006150174456083348
2018-11-07,-0.00578544168418939
2018-11-08,-0.010436107441117972
2018-11-09,-0.010188193334079353
2018-11-12,-0.007110454134242921
2018-11-13,0.00214564192327015
2018-11-14,0.005517248735466249
2018-11-15,0.004523096653803612
2018-11-16,0.010429659089482665
2018-11-19,0.009840084671922891
2018-11-20,0.0025489105638283674
2018-11-21,0.0015376677009490986
2018-11-22,0.0028479644899420363
2018-11-23,-0.0035479157067323714
2018-11-26,-0.00081147944203366
2018-11-27,0.0007663584004037639
2018-11-28,0.0009208520265647918
2018-11-29,0.0033807851123872166
2018-11-30,0.003267150930089573
2018-12-03,0.00456007292330134
2018-12-04,0.0011335760977249296
2018-12-05,0.002696849802303636
2018-12-06,-0.002174182524791877
2018-12-07,0.002686181372783647
2018-12-10,-0.0031401764881414424
2018-12-11,0.002061893929434972
2018-12-12,0.005021808297270343
2018-12-13,0.00032143398428367137
2018-12-14,0.005464084913856377
2018-12-17,0.010285252632601048
2018-12-18,0.005215883880034258
2018-12-19,-0.0005136067510253285
2018-12-20,0.003850747419328067
2018-12-21,-0.0012013369831768948
2018-12-24,0.007794075905345595
2018-12-25,0.003414055896669781
2018-12-26,0.0004477029259591222
2018-12-27,-0.008171697515846246
2018-12-28,-0.008265040465171495
2019-01-02,-0.008450156634359822
2019-01-03,-0.009347068639001092
2019-01-04,-0.005310475764407159
2019-01-07,0.0034488894443684675
2019-01-08,-0.0002973016762803562
2019-01-09,-0.001329413289899017
2019-01-10,-0.0004672151322985662
2019-01-11,0.0014500236212483617
2019-01-14,-0.005578192684638265
2019-01-15,0.0022793588259676367
2019-01-16,-0.0006402462232293867
2019-01-17,-0.0019789224262353276
2019-01-18,0.002418526452156618
2019-01-21,0.0065310677273385945
2019-01-22,0.004054828440127981
2019-01-23,0.012948889391512017
2019-01-24,0.021903145646917806
2019-01-25,0.009547683140249045
2019-01-28,0.0015840465809121157
2019-01-29,-0.004378795833711695
2019-01-30,-0.01789235080822251
2019-01-31,-0.011516091236529809
2019-02-01,-0.003805426358189694
2019-02-11,-0.007875966952967925
2019-02-12,-0.005572085020335588
2019-02-13,-0.007384933597133606
2019-02-14,-0.008968682933742318
2019-02-15,-0.010030262663805585
2019-02-18,-0.02176814128829585
2019-02-19,-0.02109116827303057
2019-02-20,-0.018097681812962882
2019-02-21,-0.021201251370596495
2019-02-22,-0.019651784660016283
2019-02-25,-0.011423843764379223
2019-02-26,0.0031157195153786142
2019-02-27,-0.0016189677337780442
2019-02-28,-0.0025923227092073953
2019-03-01,-0.003381039397892048
2019-03-04,-0.00495320268988516
2019-03-05,-0.008835738967490604
2019-03-06,-0.00646364020764062
2019-03-07,-0.0019426609504205883
2019-03-08,-0.005452217176925317
2019-03-11,-0.009151951663381265
2019-03-12,-0.0007945978370957549
2019-03-13,0.0019075939572683817
2019-03-14,0.0038255108659931217
2019-03-15,0.0009382494570691902
2019-03-18,0.005102874990943709
2019-03-19,0.0026934524914409563
2019-03-20,-0.0008862226729812531
2019-03-21,0.0022868256492638156
2019-03-22,0.010190728234126478
2019-03-25,0.007404545867818621
2019-03-26,0.0011450930771333204
2019-03-27,0.0018208695967604424
2019-03-28,0.0025846357481762797
2019-03-29,-0.009445258941688982
2019-04-01,-0.009254430669975708
2019-04-02,-0.0030056164769965074
2019-04-03,-0.0017184351050674729
2019-04-04,-0.0009334001033433764
2019-04-08,7.436551392205754e-05
2019-04-09,-0.0004184044708755094
2019-04-10,0.0005152945474879572
2019-04-11,0.002340686849718547
2019-04-12,0.0014210636456071513
2019-04-15,0.0025701445458664457
2019-04-16,0.004160705392885107
2019-04-17,0.0029621967210888157
2019-04-18,0.0006553754570042467
2019-04-19,0.0006545221053122149
2019-04-22,0.00032637024531047276
2019-04-23,0.0007309466594701032
2019-04-24,-0.005637786833541672
2019-04-25,-0.005589114990739948
2019-04-26,-0.0007346034933609497
2019-04-29,0.005273328277730353
2019-04-30,0.006671668870699338
2019-05-06,0.006091491494327139
2019-05-07,0.0048081156849060815
2019-05-08,0.004534966576435227
2019-05-09,-0.008538004371356059
2019-05-10,-0.010166907606154782
2019-05-13,-0.0030355390519815964
2019-05-14,-0.003059850594133884
2019-05-15,-0.0013778690152920527
2019-05-16,0.010704798409592056
2019-05-17,0.01091759338166353
2019-05-20,0.008750203108797344
2019-05-21,0.006529042180147514
2019-05-22,0.005317700338184503
2019-05-23,0.003594306381572994
2019-05-24,-0.0004998865506764122
2019-05-27,0.005176190096138196
2019-05-28,0.0028691113894501706
2019-05-29,-0.0022214897056735544
2019-05-30,-0.002629077312353026
2019-05-31,-0.005745338831824554
2019-06-03,-0.005193206743310093
2019-06-04,-0.006904861599197301
2019-06-05,-0.002694536584506465
2019-06-06,-0.0020922602314616956
2019-06-10,-0.0003522762248138519
2019-06-11,-0.0002762103572905225
2019-06-12,-0.001262176199846871
2019-06-13,-0.0022397196363338027
2019-06-14,-0.00824847882175462
2019-06-17,-0.007177252631247771
2019-06-18,-0.006324326647843746
2019-06-19,-0.0002547745271080093
2019-06-20,0.0007974862419791008
2019-06-21,0.012705250052668877
2019-06-24,0.013836971329160045
2019-06-25,0.007155105390618227
2019-06-26,-0.0017516288610449245
2019-06-27,-0.002882965048388737
2019-06-28,-0.00787958279794124
2019-07-01,0.0029325740378610236
2019-07-02,0.001589329811501776
2019-07-03,0.014147313661295569
2019-07-04,0.01353852022280216
2019-07-05,0.010558689762058636
2019-07-08,0.003278499339887853
2019-07-09,0.0012506454223522516
2019-07-10,-0.003810428178453295
2019-07-11,-0.0009988067817134456
2019-07-12,-0.005668815870168875
2019-07-15,0.0007740040544294505
2019-07-16,0.0008601120318351449
2019-07-17,0.00010490363032090826
2019-07-18,0.0005400118594108341
2019-07-19,0.0057926919423338455
2019-07-22,0.0018805303245856952
2019-07-23,0.0009561162942591725
2019-07-24,0.0028948126277635287
2019-07-25,0.00010540147661360338
2019-07-26,-0.000560878602249102
2019-07-29,-0.003940445748617689
2019-07-30,0.006483747195715983
2019-07-31,-0.0014907380860010033
2019-08-01,0.0006397338913067645
2019-08-02,0.0014759045638628177
2019-08-05,0.003690359125097081
2019-08-06,-0.0051446977660045525
2019-08-07,0.00018214912569775553
2019-08-08,0.004095994693738692
2019-08-09,0.003726349092862581
2019-08-12,-0.0060270818184112035
2019-08-13,-0.0026902604379835035
2019-08-14,-0.00037642971173382916
2019-08-15,-0.007225315716125436
2019-08-16,-0.004298241223932981
2019-08-19,-0.00032372939801483293
2019-08-20,-0.0032102000415840694
2019-08-21,-0.004194429263520848
2019-08-22,-0.004305979931466479
2019-08-23,-0.00182286076185348
2019-08-26,-0.006464936444622114
2019-08-27,-0.0018313268827778902
2019-08-28,-0.005757733073947112
2019-08-29,-0.006778879217565335
2019-08-30,-0.009757413723158609
2019-09-02,-0.007286170915093978
2019-09-03,-0.014837391053845052
2019-09-04,-0.011490787897521325
2019-09-05,-0.009042075574959384
2019-09-06,-0.009150444944915244
2019-09-09,-0.00017135026917496597
2019-09-10,0.00690012747105009
2019-09-11,0.003653625189664342
2019-09-12,0.0035962063632521786
2019-09-16,0.006923180966773012
2019-09-17,0.0002895848255419311
2019-09-18,0.0005604676662784632
2019-09-19,0.0065378782837653
2019-09-20,0.005207280113727231
2019-09-23,-0.003651640893781824
2019-09-24,-0.0010589171347725433
2019-09-25,-0.0010372633964059116
2019-09-26,-0.0005404749666759355
2019-09-27,-0.0058794564220213345
2019-09-30,-0.0015053305840964926
2019-10-08,-0.004829145266074503
2019-10-09,-0.005657786223175504
2019-10-10,-0.0036260183087476975
2019-10-11,-0.00038049668629496283
2019-10-14,-0.002541252250901179
2019-10-15,0.000665793954452115
2019-10-16,0.0034235935822855565
2019-10-17,-0.0019468124891886514
2019-10-18,0.0030020196018195056
2019-10-21,-0.0006762082333817195
2019-10-22,0.0013488604139972114
2019-10-23,0.005034945276978928
2019-10-24,0.0057456141945824825
2019-10-25,0.0030089485848549796
2019-10-28,0.007437260972128667
2019-10-29,0.004346699489377808
2019-10-30,-0.0002725764305165305
2019-10-31,0.0005345914968879414
2019-11-01,-0.0015998939416299813
2019-11-04,0.002541851235657951
2019-11-05,0.006178161933061215
2019-11-06,0.009286813083390038
2019-11-07,0.008471494655790408
2019-11-08,0.0063516466888568525
2019-11-11,-0.003038682938061331
2019-11-12,-0.002671876502170715
2019-11-13,-0.006923276551660002
2019-11-14,-0.005059406822119234
2019-11-15,-0.01021439504726879
2019-11-18,-0.02053882747178522
2019-11-19,-0.01882478856002907
2019-11-20,-0.012936558088172628
2019-11-21,-0.011963014499078963
2019-11-22,-0.005395385535873952
2019-11-25,0.007381725318153543
2019-11-26,0.007725797602345808
2019-11-27,0.007976620737156664
2019-11-28,0.005763830414497218
2019-11-29,0.005783278176773878
2019-12-02,0.005502274585927421
2019-12-03,0.0023833816378935786
2019-12-04,0.004079933779282214
2019-12-05,0.006378539438785701
2019-12-06,0.0033018379754955855
2019-12-09,0.005304813678761899
2019-12-10,-0.0003798456881564209
2019-12-11,0.0026903317049544358
2019-12-12,-0.005603695321759295
2019-12-13,-0.0039380804185610765
2019-12-16,-0.005409338755826034
2019-12-17,-0.002289168683978716
2019-12-18,0.0008419991606787047
2019-12-19,-7.854601790042808e-05
2019-12-20,-0.005544467294357636
2019-12-23,-0.006993699871158946
2019-12-24,-0.0055515220921686665
2019-12-25,-0.006962193313525322
2019-12-26,-0.006525988059063261
2019-12-27,-0.0024123915642719727
2019-12-30,-0.002293349614530364
2019-12-31,-0.0009496066145517085
2020-01-02,-0.0020082311213818456
2020-01-03,0.0064420481672639585
2020-01-06,0.012259004778266813
2020-01-07,0.012735396185514277
2020-01-08,0.01733512893663457
2020-01-09,0.014824092840449913
2020-01-10,0.011553868387180219
2020-01-13,0.011859911539850929
2020-01-14,0.01932047364180207
2020-01-15,0.01771261119737237
2020-01-16,0.022940626942904937
2020-01-17,0.03317330319513721
2020-01-20,0.029193136958246498
2020-01-21,0.0236330181290487
2020-01-22,0.01950481385582261
2020-01-23,0.016958019078323342
2020-02-03,-0.0003016647185395127
2020-02-04,-0.0001390746745759397
2020-02-05,0.006863661872704263
2020-02-06,0.01167092463217198
2020-02-07,0.003814721102722001
2020-02-10,0.005993777410846515
2020-02-11,0.0071337573950636946
2020-02-12,0.012688079000885016
2020-02-13,0.012535469741589478
2020-02-14,0.02091993735376068
2020-02-17,0.0318506242236134
2020-02-18,0.03362390629826299
2020-02-19,0.017042732332757486
2020-02-20,0.009534575963773311
2020-02-21,0.005931426121190429
2020-02-24,-0.013810356872647747
2020-02-25,-0.01643243178673817
2020-02-26,-0.006646977854757989
2020-02-27,-0.008063742346942598
2020-02-28,-0.0008901601165198225
2020-03-02,0.007264337872476177
2020-03-03,0.006599993164342524
2020-03-04,0.00964418705513274
2020-03-05,0.018288059183948657
2020-03-06,0.026366991237482304
2020-03-09,0.01790012456450807
2020-03-10,0.01532953072538809
2020-03-11,0.018917530547397532
2020-03-12,0.029623068772476495
2020-03-13,0.004892575640829379
2020-03-16,0.007399064934592969
2020-03-17,-0.008284950100865331
2020-03-18,-0.018568419447084206
2020-03-19,-0.02949455556301994
2020-03-20,-0.02628389604546251
2020-03-23,-0.025270688887410065
2020-03-24,-0.009083074548464617
2020-03-25,0.002425483441323595
2020-03-26,0.0043150348774005295
2020-03-27,0.010372800170585741
2020-03-30,0.010828744967112905
2020-03-31,0.008230359566498011
2020-04-01,0.001361320547359681
2020-04-02,-0.0038894635310101084
2020-04-03,-0.0053645775944690804
2020-04-07,-0.003933248062613757
2020-04-08,0.0018792727885803906
2020-04-09,0.006059619972842894
2020-04-10,0.012609573507487416
2020-04-13,0.0140189193400272
2020-04-14,0.015379535637581558
2020-04-15,0.013732862118284126
2020-04-16,0.007819184495427471
2020-04-17,0.0036682283100018193
2020-04-20,0.00790535414105173
2020-04-21,0.021315137789323965
2020-04-22,0.01591879122112303
2020-04-23,0.01240009027995042
2020-04-24,0.016886010364358557
2020-04-27,0.015186692963813857
2020-04-28,0.0009121036015780522
2020-04-29,-0.0006027805747577004
2020-04-30,0.009954406515433226
2020-05-06,0.0071494911926289675
2020-05-07,0.009572388190979771
2020-05-08,0.014887450663253471
2020-05-11,0.015044315872204648
2020-05-12,0.009101874348058443
2020-05-13,0.004954922219294173
2020-05-14,-0.001647625091566176
2020-05-15,-0.00355815538491552
2020-05-18,0.0034954895442826685
2020-05-19,0.0035577792188621633
2020-05-20,-0.002921850326357056
2020-05-21,-0.005258814333480818
2020-05-22,-0.003728038833653995
2020-05-25,-0.0021792206984156924
2020-05-26,-0.008755051537739908
2020-05-27,-0.0005238279687849248
2020-05-28,0.003601330311698049
2020-05-29,0.003720226030420753
2020-06-01,-0.003465090147808829
2020-06-02,0.0016497351936347812
2020-06-03,0.006188416068845989
2020-06-04,0.0038222990151707214
2020-06-05,0.007037026222399705
2020-06-08,0.011645444350290184
2020-06-09,0.0073409225894238705
2020-06-10,0.0012444275858265214
2020-06-11,-0.003402789547750678
2020-06-12,-0.0012170057099394511
2020-06-15,0.004433231188048049
2020-06-16,0.01481977057031369
2020-06-17,0.015616569310932022
2020-06-18,0.022805940502493502
2020-06-19,0.018793174710200818
2020-06-22,-0.001721314370598314
2020-06-23,-0.02042377022607581
2020-06-24,-0.025104108654581105
2020-06-29,-0.04285116077274918
2020-06-30,-0.03897279680760028
2020-07-01,-0.04162858729754339
2020-07-02,-0.02278245546190759
2020-07-03,-0.0008693824120714483
2020-07-06,0.0027433321406701364
2020-07-07,0.0019684923561890597
2020-07-08,0.004654085540820667
2020-07-09,-0.005458861627214845
2020-07-10,-0.014839244834851082
2020-07-13,-0.020281162151765855
2020-07-14,-0.0231312266491748
2020-07-15,-0.020780243343164077
2020-07-16,-0.003580009711076547
2020-07-17,-0.007859628337848935
2020-07-20,-0.00605284943913866
2020-07-21,-0.0030901003161020804
2020-07-22,0.0044389753159462956
2020-07-23,0.0005240691501927665
2020-07-24,0.014422775670360276
2020-07-27,0.021607807383361193
2020-07-28,0.0115535513327682
2020-07-29,0.008054373236362258
2020-07-30,0.00791212788008458
2020-07-31,-0.0037016646759707936
2020-08-03,-0.014430534160499858
2020-08-04,-0.010183536253057403
2020-08-05,-0.02324043558180581
2020-08-06,-0.03271693442432662
2020-08-07,-0.026553146798801185
2020-08-10,-0.01709182671601961
2020-08-11,-0.008173108110531135
2020-08-12,-0.009192288331750264
2020-08-13,-0.0001636885809766708
2020-08-14,-0.005184705617232409
2020-08-17,-0.007196802799786224
2020-08-18,-0.00887439895848725
2020-08-19,-0.0026528441259387643
2020-08-20,0.00045967022202348523
2020-08-21,0.006617898676271399
2020-08-24,0.002909463030881715
2020-08-25,0.007975467021830267
2020-08-26,0.021433191990037754
2020-08-27,0.011869698844595513
2020-08-28,0.002358284714469947
2020-08-31,-0.008930327196037816
2020-09-01,-0.017526541681419233
2020-09-02,-0.030063848657315657
2020-09-03,-0.028597876334331494
2020-09-04,-0.023041661420774608
2020-09-07,-0.013742329157137936
2020-09-08,-0.003618692280000652
2020-09-09,-0.0009067988707837605
2020-09-10,0.0036634137691242763
2020-09-11,-0.004037942980954303
2020-09-14,-0.004577835664541593
2020-09-15,-7.467204755936315e-05
2020-09-16,0.013235917130956686
2020-09-17,0.013427341147523052
2020-09-18,0.016168748020280333
2020-09-21,0.008702960830017151
2020-09-22,0.006355786406094395
2020-09-23,0.003978232766997701
2020-09-24,0.005549524572357301
2020-09-25,0.012569308814745231
2020-09-28,0.02092451784891856
2020-09-29,0.0129640651827251
2020-09-30,0.007638323075777224
2020-10-09,0.00267663970590889
2020-10-12,-0.01023959040399882
2020-10-13,-0.003368378121270641
2020-10-14,-0.010278308099977835
2020-10-15,-0.007098609055388828
2020-10-16,-0.013885860413577443
2020-10-19,-0.006898951196075068
2020-10-20,-0.006752935393697765
2020-10-21,0.0008626844802132856
2020-10-22,0.005704293491814651
2020-10-23,0.01766013023900137
2020-10-26,0.014680215551680446
2020-10-27,0.0031620136791721525
2020-10-28,-0.0022990198403855123
2020-10-29,-0.012866930192682029
2020-10-30,-0.02293613558357523
2020-11-02,-0.02290438105548926
2020-11-03,-0.020336182150585743
2020-11-04,-0.03529593340300897
2020-11-05,-0.026852898325948102
2020-11-06,-0.01615617198858091
2020-11-09,-0.031717518296228535
2020-11-10,-0.02715614749359016
2020-11-11,-0.017430383900900393
2020-11-12,-0.017665319974735742
2020-11-13,-0.020666773590238156
2020-11-16,-0.01850213911974549
2020-11-17,-0.01760550579668729
2020-11-18,-0.016510813547725312
2020-11-19,-0.017777974687899163
2020-11-20,-0.02034667018723212
2020-11-23,-0.01161118932196041
2020-11-24,-0.005006565759912881
2020-11-25,0.0012821471843295507
2020-11-26,0.011157570203444945
2020-11-27,0.018843347156115506
2020-11-30,0.016816480342721176
2020-12-01,0.019380783732937737
2020-12-02,0.011922316267212702
2020-12-03,0.005047423362328184
2020-12-04,0.002679651275474433
2020-12-07,0.005130739759852629
2020-12-08,-0.0006481556778614259
2020-12-09,0.004056981760631317
2020-12-10,0.0020494269356409675
2020-12-11,-0.0007995249036808275
2020-12-14,0.0014779675255373985
2020-12-15,0.00782575297481066
2020-12-16,0.0035959431966962503
2020-12-17,0.005940485480331718
2020-12-18,0.00773070445306951
2020-12-21,0.008758372868043433
2020-12-22,-0.0034130222408000777
2020-12-23,0.000503225387014113
2020-12-24,-0.0013981482074036274
2020-12-25,0.0037777148277902788
2020-12-28,0.01047362211005251
2020-12-29,0.021451045429662988
2020-12-30,0.02446504810161684
2020-12-31,0.013055771988703974
2021-01-04,-0.004396265388069446
2021-01-05,-0.007144181087001086
2021-01-06,-0.007925601586084617
2021-01-07,-0.026459888990826103
2021-01-08,-0.01903099019285683
2021-01-11,-0.013833268510808322
2021-01-12,-0.04186694012532166
2021-01-13,-0.01808149853731956
2021-01-14,0.0032150116712174985
2021-01-15,0.018649071713551416
2021-01-18,0.02031975077523956
2021-01-19,0.027429486617858004
2021-01-20,0.008283577008689905
2021-01-21,0.0049825593983017814
2021-01-22,-0.004838303269347449
2021-01-25,-0.014091918268882609
2021-01-26,0.00511934740877122
2021-01-27,0.006617429084466641
2021-01-28,0.011549919579245893
2021-01-29,0.0031280220017303275
2021-02-01,0.004754371740347274
2021-02-02,0.004860820435572408
2021-02-03,0.013731705635200365
2021-02-04,-0.01556948767474036
2021-02-05,-0.02503654089469738
2021-02-08,-0.051532382100823636
2021-02-09,-0.05462764278210354
2021-02-10,-0.06094319051687991
2021-02-18,-0.05303254542533649
2021-02-19,-0.03725757239172839
2021-02-22,-0.015824821405888576
2021-02-23,-0.018167713848886838
2021-02-24,-0.010822522849546701
2021-02-25,-0.01161547654460682
2021-02-26,-0.015312747070879058
2021-03-01,-0.03471845943000222
2021-03-02,-0.03484269876663708
2021-03-03,-0.017095713621778787
2021-03-04,-0.010805316417842263
2021-03-05,-0.010944560432883447
2021-03-08,-0.006026079284071533
2021-03-09,-0.00032959118115880384
2021-03-10,-0.012391413065509817
2021-03-11,-0.008110239159977817
2021-03-12,-0.009851810280875478
2021-03-15,-0.002535483238895006
2021-03-16,0.0009018639230301377
2021-03-17,0.00033063368274975635
2021-03-18,-0.004941068595191615
2021-03-19,0.003801472578156786
2021-03-22,0.005735024319873763
2021-03-23,0.008029388218039453
2021-03-24,0.003179545623437481
2021-03-25,0.006120940066552533
2021-03-26,0.011621386085420703
2021-03-29,0.008018854177323329
2021-03-30,-0.002800325004004796
2021-03-31,0.005492966629315624
2021-04-01,-0.003826670909517696
2021-04-02,-0.013103159891140706
2021-04-06,-0.0024474133835006746
2021-04-07,0.002547671563228408
2021-04-08,-0.001474041534180244
2021-04-09,-0.004603556907077554
2021-04-12,0.00538218993388033
2021-04-13,-0.001042711558489045
2021-04-14,0.004084173926514096
2021-04-15,0.002524445051016091
2021-04-16,0.0216330854384595
2021-04-19,0.01499224335063552
2021-04-20,0.021298132720191206
2021-04-21,0.017290728276897347
2021-04-22,0.014969131964542075
2021-04-23,0.012084123758917266
2021-04-26,0.009764557086545507
2021-04-27,-0.0043493075552356415
2021-04-28,-0.006441845685718402
2021-04-29,0.0014490857696332834
2021-04-30,-0.005869092439330814
2021-05-06,0.0013550066719913677
2021-05-07,0.013700427618833841
2021-05-10,0.019988853203233896
2021-05-11,0.0063333683819341395
2021-05-12,0.007450265933667469
2021-05-13,0.0069392021110909405
2021-05-14,0.0022137250282931453
2021-05-17,-0.0035328582110742872
2021-05-18,0.0040260557833207665
2021-05-19,-0.0019437854204300276
2021-05-20,0.0029087288677427173
2021-05-21,0.005750573074175935
2021-05-24,0.008452836628091133
2021-05-25,0.006302236213180429
2021-05-26,0.0036528563467391507
2021-05-27,-0.003025114656585226
2021-05-28,0.002668460745892769
2021-05-31,-0.0006169903549345687
2021-06-01,-0.009054582025131389
2021-06-02,0.0017091978690362605
2021-06-03,0.0073851699951777835
2021-06-04,0.0024119369058530444
2021-06-07,-3.2822494653245507e-06
2021-06-08,-0.003071738882554397
2021-06-09,0.004947687516408346
2021-06-10,-0.0017368570954908354
2021-06-11,0.004541945983326705
2021-06-15,0.005987869958988493
2021-06-16,0.01772662643879641
2021-06-17,0.004050022342111475
2021-06-18,0.0059943179592236336
2021-06-21,0.00039609931937335113
2021-06-22,0.004117422527234805
2021-06-23,0.011262359221956184
2021-06-24,0.013360402076956473
2021-06-25,0.0026033927988928576
2021-06-28,0.010146645878578468
2021-06-29,0.003096244369767744
2021-06-30,0.008782275296057225
2021-07-01,0.021310651011022783
2021-07-02,0.022102918559145406
2021-07-05,0.016611782667457237
2021-07-06,0.014747703728458808
2021-07-07,0.004782719399108792
2021-07-08,-0.0005287744972990224
2021-07-09,5.8648336637432893e-05
2021-07-12,0.0027591868085534085
2021-07-13,0.01824404444008446
2021-07-14,0.02777666091678316
2021-07-15,0.016591443521463488
2021-07-16,0.022425038945889358
2021-07-19,0.020405151416158063
2021-07-20,0.01806816418273824
2021-07-21,0.011787121699936634
2021-07-22,0.019753688071693403
2021-07-23,0.02301963130243884
2021-07-26,0.014270920509032758
2021-07-27,0.005503833533168093
2021-07-28,0.012290850350097061
2021-07-29,0.009430228487638947
2021-07-30,0.003501991295907902
2021-08-02,-0.0017043027273573562
2021-08-03,0.003061622905838512
2021-08-04,-0.014165595965746394
2021-08-05,-0.01632495654563825
2021-08-06,-0.018530152658368697
2021-08-09,-0.014222300765287983
2021-08-10,-0.014835322952483208
2021-08-11,-0.014091930318782302
2021-08-12,-0.0020758193687625964
2021-08-13,-0.002482919166081912
2021-08-16,0.013119387562909045
2021-08-17,0.021709845738384758
2021-08-18,0.021220364921324474
2021-08-19,0.009994870124620348
2021-08-20,0.01633420041169121
2021-08-23,0.015974730701875474
2021-08-24,0.005228565692846011
2021-08-25,-0.017461344917832373
2021-08-26,-0.024202443847961157
2021-08-27,-0.038902631009831636
2021-08-30,-0.03513958289209059
2021-08-31,-0.027164453333433952
2021-09-01,-0.0172154409855816
2021-09-02,-0.005648287308681377
2021-09-03,0.009902112845605673
2021-09-06,0.005037228859486433
2021-09-07,0.010564310854016835
2021-09-08,0.021602395341379522
2021-09-09,0.005923380592623772
2021-09-10,-0.0012023223526365819
2021-09-13,0.004072969857300757
2021-09-14,-0.007140916821874149
2021-09-15,-0.010912402492013301
2021-09-16,-0.011801977731856827
2021-09-17,-0.005208715075239414
2021-09-22,-0.018782323305603782
2021-09-23,-0.008869940710902788
2021-09-24,-0.01669370656772471
2021-09-27,-0.012576742661671041
2021-09-28,-0.015225645262251387
2021-09-29,-0.006476496130197666
2021-09-30,-0.012616792754843096
2021-10-08,0.003646924850245691
2021-10-11,0.015418139038806795
2021-10-12,0.010245852239176567
2021-10-13,0.002402723027760706
2021-10-14,0.006692590796169781
2021-10-15,-0.010183423749504412
2021-10-18,-0.01053020127782529
2021-10-19,-0.002799921357554419
2021-10-20,0.005482584318615118
2021-10-21,-0.008145866025067918
2021-10-22,0.0036013088003380034
2021-10-25,-0.0025195683983662027
2021-10-26,-0.007773053403701838
2021-10-27,-0.011555630919901961
2021-10-28,-0.0011439067606870143
2021-10-29,-0.007960715646442466
2021-11-01,-0.001006752622773002
2021-11-02,0.002868198432463039
2021-11-03,-0.004294274420741194
2021-11-04,-0.007254696739557048
2021-11-05,-0.0030248101638170356
2021-11-08,-0.02320150083184735
2021-11-09,-0.027286625650534198
2021-11-10,-0.019309474441167387
2021-11-11,-0.005336165884370054
2021-11-12,-0.0029350505461541356
2021-11-15,0.02050903470354189
2021-11-16,0.028265361460472573
2021-11-17,0.021484630505015864
2021-11-18,0.009463517535260748
2021-11-19,0.01577009608698604
2021-11-22,0.014770799119129365
2021-11-23,0.019993268636356917
2021-11-24,0.014909797135607233
2021-11-25,0.020475606760490914
2021-11-26,0.013065857495934505
2021-11-29,0.007273347218278076
2021-11-30,-0.010430073554741508
2021-12-01,-0.0074833410450167856
2021-12-02,-0.015341676945186993
2021-12-03,-0.011408925854682762
2021-12-06,-0.017424391132714448
2021-12-07,-0.001894799916932359
2021-12-08,0.0031139647845927214
2021-12-09,0.010153448962427697
2021-12-10,0.006229185206449458
2021-12-13,0.008426185883836795
2021-12-14,0.001586139848093554
2021-12-15,-0.0025034857390435917
2021-12-16,-0.0033194531281882742
2021-12-17,-0.011994093762470966
2021-12-20,-0.01258085878207621
2021-12-21,-0.005367547341916126
2021-12-22,0.0001673814710773311
2021-12-23,0.0017037215676700339
2021-12-24,0.004145725795444916
2021-12-27,0.001040115713414301
2021-12-28,-0.007963823600912032
2021-12-29,-0.008352121893598503
2021-12-30,-0.02110088437134141
2021-12-31,-0.0189061495235402
2022-01-04,-0.018513418706288413
2022-01-05,-0.016428239930538414
2022-01-06,-0.023698925819592112
2022-01-07,-0.009553127271156408
2022-01-10,0.002503495217818502
2022-01-11,0.0045842101850727835
2022-01-12,0.005331026571417418
2022-01-13,-0.005675143566306446
2022-01-14,-0.00603974438963897
2022-01-17,-0.004013806906726996
2022-01-18,0.0008097209431220942
2022-01-19,0.004928341571797942
2022-01-20,0.018506814741594185
2022-01-21,0.017374133448919048
2022-01-24,0.003630896841660028
2022-01-25,-0.0057314962677662215
2022-01-26,-0.013752604966198512
2022-01-27,-0.02139250100807104
2022-01-28,-0.02031049620028062
2022-02-07,-0.006514995217844075
2022-02-08,0.0020322670714333574
2022-02-09,-0.0015137509282588165
2022-02-10,0.006715889352113409
2022-02-11,0.009026387318980757
2022-02-14,0.010321303674526073
2022-02-15,0.012123513098797898
2022-02-16,0.02067227055711584
2022-02-17,0.02717370572652079
2022-02-18,0.02531332584969293
2022-02-21,0.024561540625062935
2022-02-22,0.011412327350640381
2022-02-23,0.016202145585315214
2022-02-24,0.007491930407148998
2022-02-25,0.014126344099125325
2022-02-28,0.019858061191585064
2022-03-01,0.02984840319629147
2022-03-02,0.028811411914017974
2022-03-03,0.02882097450894952
2022-03-04,0.020746562128914556
2022-03-07,0.017086482929482782
2022-03-08,0.026611759563194254
2022-03-09,0.0052431346354072945
2022-03-10,-0.006769337816703522
2022-03-11,-0.009793208112173806
2022-03-14,-0.017365484744098027
2022-03-15,-0.04338597604862101
2022-03-16,-0.03325337341875817
2022-03-17,-0.0076274670839438265
2022-03-18,0.005427785620024238
2022-03-21,-0.0005742068212188367
2022-03-22,-0.0015944035117113516
2022-03-23,0.003673448301209678
2022-03-24,0.0023990976335745446
2022-03-25,-0.008689415019807554
2022-03-28,-0.010621605607663166
2022-03-29,-0.005822217009912811
2022-03-30,0.0018114313849114175
2022-03-31,0.01229065722660784
2022-04-01,0.009373356701619543
2022-04-06,0.015418823782598744
2022-04-07,0.008250874468753793
2022-04-08,0.007142740145711882
2022-04-11,-0.0024623632523411458
2022-04-12,0.010191217676590505
2022-04-13,-0.0006756761334732794
2022-04-14,0.003353347735180763
2022-04-15,0.0037781419669562916
2022-04-18,0.011583677331812092
2022-04-19,0.010492316039000402
2022-04-20,0.008262522866166362
2022-04-21,0.0069063105269484525
2022-04-22,-0.002861125467613188
2022-04-25,-0.019285306771979246
2022-04-26,-0.0020786166094835037
2022-04-27,0.002463762787771483
2022-04-28,0.005210280210790286
2022-04-29,0.015661730068754303
2022-05-05,0.013988741281772918
2022-05-06,0.0005099712599950443
2022-05-09,-0.00320408997089908
2022-05-10,-0.011794934376515895
2022-05-11,-0.005875283691050679
2022-05-12,-0.00022899402962048288
2022-05-13,-7.652408115868536e-05
2022-05-16,0.004670270785622106
2022-05-17,0.013923817218792411
2022-05-18,0.010396856381834154
2022-05-19,0.009495719652759253
2022-05-20,0.009169094741581216
2022-05-23,-0.0025716767488767217
2022-05-24,-0.015468123810040629
2022-05-25,-0.010079233683337602
2022-05-26,-0.006405312789994219
2022-05-27,-0.0004962190552039725
2022-05-30,-0.0004934797216959441
2022-05-31,-0.0028513530558241344
2022-06-01,-0.0059364032309237175
2022-06-02,-0.008715876393037
2022-06-06,-0.001887756857063134
2022-06-07,0.0012169137217552075
2022-06-08,0.0020801795399177196
2022-06-09,0.003612749546258665
2022-06-10,0.002007892861956684
2022-06-13,-0.003955113860438009
2022-06-14,-0.007390523995518573
2022-06-15,0.0005819784689262348
2022-06-16,0.004333453846796656
2022-06-17,0.0032814787814466756
2022-06-20,0.0003420399879935018
2022-06-21,0.0068568553733608165
2022-06-22,0.0010158042082442885
2022-06-23,-0.00475579144327486
2022-06-24,-0.001595535255698926
2022-06-27,-0.0006904855667784603
2022-06-28,0.001847554189522651
2022-06-29,0.01066823785049999
2022-06-30,0.01617672781385994
2022-07-01,0.01093329374254822
2022-07-04,0.008215707050520007
2022-07-05,0.0007751135068402304
2022-07-06,0.0027169071039168033
2022-07-07,0.00507705796580369
2022-07-08,0.016524456085731692
2022-07-11,0.009814161275780428
2022-07-12,0.004214843213983134
2022-07-13,-0.004783280644113308
2022-07-14,-0.014802838801781407
2022-07-15,-0.02032648384865177
2022-07-18,-0.012720778942076927
2022-07-19,-0.008241528778156404
2022-07-20,0.0007746913976549308
2022-07-21,0.0010772117505952607
2022-07-22,0.0026336297849576876
2022-07-25,0.009747074714227881
2022-07-26,0.018624243480471054
2022-07-27,0.010481605678979024
2022-07-28,0.0057019766132847885
2022-07-29,-0.00021507584260738654
2022-08-01,-0.0033064484208247254
2022-08-02,-0.002639458664785311
2022-08-03,0.004867398576640461
2022-08-04,0.0040848766221154575
2022-08-05,0.0019207078523657767
2022-08-08,0.006664217599711279
2022-08-09,0.003611075934708964
2022-08-10,-0.0048089296843637774
2022-08-11,0.01364043935646848
2022-08-12,0.013037801790109122
2022-08-15,0.005596747332279144
2022-08-16,0.005196298499358624
2022-08-17,0.001618459091306118
2022-08-18,-0.014578145297413758
2022-08-19,-0.01522202020823325
2022-08-22,-0.017366402738306135
2022-08-23,-0.02655712685740305
2022-08-24,-0.03913089822908554
2022-08-25,-0.018649525934298413
2022-08-26,-0.011664992512984829
2022-08-29,-0.008648422379396017
2022-08-30,0.00020948637908705867
2022-08-31,0.023932881267638678
2022-09-01,0.014918171762763053
2022-09-02,0.008237888331549835
2022-09-05,0.00356838344474655
2022-09-06,-0.0005889150927082618
2022-09-07,-0.01873064218656135
2022-09-08,-0.014382327056392055
2022-09-09,0.0001330231768331691
2022-09-13,0.004643100377607415
2022-09-14,0.006115996233451673
2022-09-15,0.02087460005526567
2022-09-16,0.020461465687527977
2022-09-19,0.013872347169162524
2022-09-20,0.000279680602193905
2022-09-21,-0.0040295297774617655
2022-09-22,-0.005314727112620762
2022-09-23,-0.011836024283850334
2022-09-26,-0.006496181949595999
2022-09-27,0.011651735748040994
2022-09-28,0.012451151844229735
2022-09-29,0.004829938989379296
2022-09-30,0.00038557244252749104
2022-10-10,-0.008890038995565015
2022-10-11,-0.017459647254842947
2022-10-12,-0.006215417347574841
2022-10-13,-0.005293387703007014
2022-10-14,-0.002792925157300962
2022-10-17,0.019933225555266762
2022-10-18,0.025140137722687264
2022-10-19,0.01668688487437728
2022-10-20,0.005966566967906857
2022-10-21,0.01871108628886446
2022-10-24,-0.0030581260111598573
2022-10-25,-0.018238997994077404
2022-10-26,-0.019246077077590257
2022-10-27,-0.004983984265325929
2022-10-28,-0.019533013728165433
2022-10-31,-0.025434339370780407
2022-11-01,-0.010506475757155093
2022-11-02,-0.00605669701662584
2022-11-03,-0.008553370344788732
2022-11-04,-0.013021059441181582
2022-11-07,-0.015288501942873189
2022-11-08,-0.021383242897399676
2022-11-09,-0.017582622695238664
2022-11-10,-0.024187058622396163
2022-11-11,-0.013929384618316968
2022-11-14,-0.009128353086299454
2022-11-15,-0.007948738604686605
2022-11-16,-0.009159669480993251
2022-11-17,-0.0025877049189278467
2022-11-18,-0.006815944639707125
2022-11-21,-0.00363219971199971
2022-11-22,-0.0029939705844061384
2022-11-23,-0.0017796415333525741
2022-11-24,-0.00425901046357444
2022-11-25,0.0011410900641936617
2022-11-28,-0.00392678436925354
2022-11-29,-0.00435910580154121
2022-11-30,-0.00450068421035657
2022-12-01,0.00163918010174808
2022-12-02,0.005180064548703232
2022-12-05,0.005773771225890331
2022-12-06,0.008606031642722485
2022-12-07,0.009623255047887622
2022-12-08,-0.0002339947835048638
2022-12-09,0.0038813134914707156
2022-12-12,0.005907128980675226
2022-12-13,0.0010137669807766848
2022-12-14,0.002583247487015397
2022-12-15,0.012162663380022719
2022-12-16,0.006158007317762976
2022-12-19,-0.0011621851756275971
2022-12-20,0.001839007177891908
2022-12-21,0.001763585692895333
2022-12-22,-0.005458815150392019
2022-12-23,-0.005426093171744226
2022-12-26,-0.0031174195674158033
2022-12-27,-0.0010391614265384845
2022-12-28,-0.006348049360959614
2022-12-29,-0.0044714236620126135
2022-12-30,-0.0024643053267998163
2023-01-03,-0.0030960108857040827
2023-01-04,-0.005086681041865548
2023-01-05,-0.0018701687392399403
2023-01-06,-0.0003174706507806085
2023-01-09,-0.010208216192862739
2023-01-10,-0.006793088102233717
2023-01-11,-0.011148324088137436
2023-01-12,-0.012290220696680416
2023-01-13,-0.013481499101072842
2023-01-16,-0.00788000967938356
2023-01-17,-0.008214776503074511
2023-01-18,-0.004537210108266326
2023-01-19,-0.0009596845508395412
2023-01-20,-0.00423781344323724
2023-01-30,-0.004851441705411064
2023-01-31,-0.004646346726249169
2023-02-01,-0.006728686715430893
2023-02-02,-0.0060384147987359044
2023-02-03,-0.007886180024946492
2023-02-06,-0.004073921483241239
2023-02-07,-0.006414366725062856
2023-02-08,-0.008256027493250148
2023-02-09,-0.007291086750265218
2023-02-10,-0.00348170360076977
2023-02-13,-0.007119919594506486
2023-02-14,-0.010078516398292658
2023-02-15,-0.010914026306340516
2023-02-16,-0.010538119483349057
2023-02-17,-0.008469405666551855
2023-02-20,-0.007138073729757267
2023-02-21,-0.0017338997261096036
2023-02-22,0.004759344453420488
2023-02-23,0.002330367989622421
2023-02-24,0.002002578691552282
2023-02-27,0.004224663387421359
2023-02-28,-0.00035531628200241046
2023-03-01,-0.006277189596828018
2023-03-02,-0.004495632927061488
2023-03-03,-0.0037540140953621556
2023-03-06,0.002297573177795966
2023-03-07,0.00503334817261754
2023-03-08,0.0034764369682464737
2023-03-09,0.004279825553657503
2023-03-10,0.01437021547201844
2023-03-13,0.009932920568370043
2023-03-14,0.006530492021469832
2023-03-15,0.010374607808018525
2023-03-16,0.014816111936659333
2023-03-17,0.007147557375271212
2023-03-20,0.007168211003620549
2023-03-21,0.0076402317609309805
2023-03-22,0.006181646015629134
2023-03-23,-0.0027032945229733137
2023-03-24,0.000377051916965806
2023-03-27,0.01276167404515437
2023-03-28,0.020769175777529757
2023-03-29,0.021593508704581727
2023-03-30,0.024606607317628083
2023-03-31,0.005729636133885689
2023-04-03,-0.005288952271494702
2023-04-04,-0.00044155924924777195
2023-04-06,-0.010944513476813352
2023-04-07,-0.009546619104828739
2023-04-10,0.00043193174868198184
2023-04-11,-0.0021066818746961896
2023-04-12,-0.013503949471756607
2023-04-13,0.01322568895366087
2023-04-14,0.0012781051095374259
2023-04-17,0.015929028646774278
2023-04-18,0.019404168498946762
2023-04-19,0.0005654727261747705
2023-04-20,-0.02642821203259497
2023-04-21,-0.002189503317606303
2023-04-24,-0.008435861739388083
2023-04-25,-0.020491810673551738
2023-04-26,-0.0014946081192582453
2023-04-27,0.009681178870010718
2023-04-28,-0.00800436299951747
2023-05-04,-0.0076279627920261585
2023-05-05,-0.007828280384246539
2023-05-08,-0.017976978079977987
2023-05-09,-0.027824918779314776
2023-05-10,-0.01743906036067578
2023-05-11,-0.007622500857047328
2023-05-12,-0.004912845678875656
2023-05-15,-0.008671340937194506
2023-05-16,-0.003030292600222477
2023-05-17,-0.002900661126367988
2023-05-18,-0.009838153442765295
2023-05-19,0.0012239104686943211
2023-05-22,0.01580011397803814
2023-05-23,0.028357527178204237
2023-05-24,0.03746138169903891
2023-05-25,0.03703515880648777
2023-05-26,0.017096363773165688
2023-05-29,0.01568485562459985
2023-05-30,0.0013563179508006113
2023-05-31,-0.005757880725802557
2023-06-01,-0.009825415464026379
2023-06-02,0.008696998257287258
2023-06-05,0.0038233483459571586
2023-06-06,0.004387893564772052
2023-06-07,0.004136582895802082
2023-06-08,-0.004970259550465872
2023-06-09,-0.0061562353072213555
2023-06-12,0.00394899301994581
2023-06-13,0.005796838484589676
2023-06-14,-0.002825989712884752
2023-06-15,-0.00026497251814578196
2023-06-16,-0.0050538510252216146
2023-06-19,-0.01588844474436526
2023-06-20,-0.021544829000936558
2023-06-21,-0.019195341143326675
2023-06-26,-0.015759315553236883
2023-06-27,-0.010697909664279701
2023-06-28,-0.0060094197486874916
2023-06-29,-0.004501509667741911
2023-06-30,-0.0038554650322001442
2023-07-03,-0.0003717152781719038
2023-07-04,-0.002897358225691312
2023-07-05,-0.009091668117767656
2023-07-06,-0.01229998682379542
2023-07-07,-0.00441326703065301
2023-07-10,0.0004500214970866775
2023-07-11,-0.00577462081143254
2023-07-12,0.004564450461335663
2023-07-13,-0.00583620541014615
2023-07-14,-0.016971700439289063
2023-07-17,-0.015550133032985728
2023-07-18,-0.012697472283877279
2023-07-19,-0.019796055978857023
2023-07-20,-0.013423365569775424
2023-07-21,-0.015761671223134616
2023-07-24,-0.016645081600388325
2023-07-25,-0.008469147542697671
2023-07-26,0.0035331339532781916
2023-07-27,0.003767272642400083
2023-07-28,0.012549820936291742
2023-07-31,0.013577187673757816
2023-08-01,0.008929333699233556
2023-08-02,0.00042163622525198414
2023-08-03,0.0014728451483554759
2023-08-04,-0.0015744876004558025
2023-08-07,-0.0023357838226507714
2023-08-08,0.0042234915292018345
2023-08-09,0.003136995349371053
2023-08-10,0.0027518472039609713
2023-08-11,0.002108110055287254
2023-08-14,0.0018043981214001074
2023-08-15,0.004894388494295545
2023-08-16,0.008042764328601782
2023-08-17,0.006489505894713504
2023-08-18,0.004187748867599036
2023-08-21,0.008522467639964199
2023-08-22,-0.0021949045859446376
2023-08-23,-0.0031393661392066403
2023-08-24,-0.0012110074995124124
2023-08-25,0.0017851485382257108
2023-08-28,-0.0029016698905954333
2023-08-29,-0.002125471802410258
2023-08-30,0.0007789485218957495
2023-08-31,0.001927730832791773
2023-09-01,0.0030531176798914168
2023-09-04,0.004823111456137154
2023-09-05,0.004137475138844384
2023-09-06,-0.0035139139146314856
2023-09-07,-0.004729243721943449
2023-09-08,-0.00867271511396212
2023-09-11,-0.011955262348049979
2023-09-12,-0.009849379552785205
2023-09-13,-0.006741724153777248
2023-09-14,-5.208318826159172e-05
2023-09-15,0.007421448824358599
2023-09-18,0.006099468593290081
2023-09-19,0.012108130908793981
2023-09-20,0.006388675444822075
2023-09-21,0.006790289529405335
2023-09-22,0.0025286997491137057
2023-09-25,0.00640683022068081
2023-09-26,-0.0004131480137175938
2023-09-27,-0.0002798141485352793
2023-09-28,-0.0012309701199812765
2023-10-09,-0.0015866838925385172
2023-10-10,-0.0006818564839434771
2023-10-11,0.0036419629177713384
2023-10-12,0.01215089762043765
2023-10-13,0.00706235923858833
2023-10-16,0.006505277500517874
2023-10-17,0.006530942078593484
2023-10-18,0.0031128604484753006
2023-10-19,-0.0033419720656314815
2023-10-20,-0.006410414375191265
2023-10-23,-0.00658743060545193
2023-10-24,-0.006804598387166037
2023-10-25,-0.005020701960732118
2023-10-26,-0.004521858057020501
2023-10-27,0.0036524662553967515
2023-10-30,0.0043439633998972275
2023-10-31,0.0057022405967417766
2023-11-01,0.008308523577165106
2023-11-02,0.0074280357544377305
2023-11-03,0.006469495774388851
2023-11-06,0.00618525415804434
2023-11-07,0.005262492629500863
2023-11-08,-0.001568755351356978
2023-11-09,-0.00020747514626171144
2023-11-10,0.00227513251762978
2023-11-13,-0.0015799519948339823
2023-11-14,-0.007679386579460056
2023-11-15,-0.006379026319676616
2023-11-16,-0.004737998786025011
2023-11-17,-0.01103500785246887
2023-11-20,-0.005692470189854278
2023-11-21,-0.0016595202061665433
2023-11-22,0.001227431777701394
2023-11-23,-0.0021469095124834418
2023-11-24,0.009050677452488203
2023-11-27,0.004024104581669091
2023-11-28,0.0012349715996428437
2023-11-29,-0.000617091972526726
2023-11-30,0.0027503993425170396
2023-12-01,0.0002067915149873492
2023-12-04,0.0045243567993247975
2023-12-05,0.004723674416113294
2023-12-06,0.0069019070831676955
2023-12-07,0.007344128848164588
2023-12-08,0.005845785579097026
2023-12-11,-0.0005944065996851926
2023-12-12,0.004277351154141386
2023-12-13,-0.0015969946728665238
2023-12-14,-0.005371697724894578
2023-12-15,-0.011720406234258868
2023-12-18,-0.011005823360885063
2023-12-19,-0.017412895156392254
2023-12-20,-0.013305999106634995
2023-12-21,-0.014383946404051764
2023-12-22,-0.003519032167426578
2023-12-25,-0.005196655060580776
2023-12-26,-0.005752353454694327
2023-12-27,-0.004859320456307598
2023-12-28,-0.0047384318310536265
2023-12-29,-0.008766929310741689
2024-01-02,-0.0071331647547088865
2024-01-03,-0.008525689302597995
2024-01-04,-0.0027023088296750843
2024-01-05,-0.004497190067398514
2024-01-08,-0.0018253383888417653
2024-01-09,-0.0021545236859205983
2024-01-10,0.005425425715931853
2024-01-11,0.004003944069799797
2024-01-12,0.00927711155365117
2024-01-15,0.006950301564192511
2024-01-16,0.002541628227437788
2024-01-17,-0.009054834645268335
2024-01-18,-0.016755479514290388
2024-01-19,-0.018616469732123418
2024-01-22,-0.01655898903436804
2024-01-23,-0.00880066078788102
2024-01-24,-0.0054838050076242255
2024-01-25,-0.0005608408005816842
2024-01-26,-0.005909284559273149
2024-01-29,-0.012722485049531745
2024-01-30,-0.019333969562900014
2024-01-31,-0.014924045422985237
2024-02-01,-0.004654285282886049
2024-02-02,-0.002914642966318562
2024-02-05,0.018044125702640884
2024-02-06,0.012737435001833011
2024-02-07,0.011083678870111455
2024-02-08,-0.0018080985573775896
2024-02-19,0.0012774212137711752
2024-02-20,0.0060360515825501684
2024-02-21,0.004524638567933417
2024-02-22,0.003034308296401167
2024-02-23,0.003051792102824462
2024-02-26,0.0037947734116786716
2024-02-27,0.0032866472297990532
2024-02-28,0.010843587055751617
2024-02-29,0.007087640547559757
2024-03-01,0.0020568316035570757
2024-03-04,-0.007030967881309872
2024-03-05,-0.02307031567742268
2024-03-06,-0.014237862931251776
2024-03-07,-0.015316572165348824
2024-03-08,-0.012155085240943062
2024-03-11,-0.0031154200383387825
2024-03-12,0.010944240390063168
2024-03-13,0.011267453377240713
2024-03-14,0.009319798532216185
2024-03-15,0.00788440249287374
2024-03-18,-0.000991587972466311
2024-03-19,-0.012068391896969857
2024-03-20,-0.019890029634772342
2024-03-21,-0.00855217570420936
2024-03-22,-0.014368590199937834
2024-03-25,-0.007388198087847136
2024-03-26,-0.0023537727502861688
2024-03-27,0.0024367299359453407
2024-03-28,-0.0061544666551741085
2024-03-29,-0.006583221353961655
2024-04-01,-0.016398387277685316
2024-04-02,-0.009088661050220352
2024-04-03,0.0008377430333585296
2024-04-08,-0.000494169663651647
2024-04-09,-0.003486234813010289
2024-04-10,0.010357860598693622
2024-04-11,0.006407809353960585
2024-04-12,0.00027754614794263735
2024-04-15,-0.0073339408978183845
2024-04-16,-0.012874364527770478
2024-04-17,-0.01788796479036632
2024-04-18,-0.01980726723961158
2024-04-19,-0.02154308496432286
2024-04-22,-0.011926536121336151
2024-04-23,-0.005133933462452021
2024-04-24,-0.021866181838508518
2024-04-25,-0.016383066043318233
2024-04-26,-0.01090559044737448
2024-04-29,-0.010904807394201627
2024-04-30,-0.01312357674785623
2024-05-06,-0.004103419787512272
2024-05-07,-0.008114891694816564
2024-05-08,-0.005642609265541119
2024-05-09,-0.004122873840102589
2024-05-10,-0.0020264232361998525
2024-05-13,0.007182921426026963
2024-05-14,0.011762633286005627
2024-05-15,0.005503132258300561
2024-05-16,0.005938242219941187
2024-05-17,0.006474290416687789
2024-05-20,0.006345774949270775
2024-05-21,0.004321080608073069
2024-05-22,0.00867190128571527
2024-05-23,0.006591657136505016
2024-05-24,0.004172796472660577
2024-05-27,-0.002874725690598068
2024-05-28,-0.008209759025863477
2024-05-29,-0.008941577777709913
2024-05-30,-0.0013731296240590148
2024-05-31,0.0020193487831428126
2024-06-03,0.0014925215599990152
2024-06-04,0.005027609364459661
2024-06-05,0.0057034454680276086
2024-06-06,0.0058458073678661505
2024-06-07,0.0013308674365413225
2024-06-11,0.005250787511888423
2024-06-12,0.0048039842741624105
2024-06-13,0.008695070347384667
2024-06-14,0.005586440756829656
2024-06-17,0.005499136463321879
2024-06-18,0.003424197488118688
2024-06-19,0.0008415900905570858
2024-06-20,-0.0007025797990651388
2024-06-21,0.005705953532968169
2024-06-24,0.014161699259995105
2024-06-25,0.016317190656596165
2024-06-26,0.01347228722792616
2024-06-27,0.010314389686505275
2024-06-28,0.002075691473550444
2024-07-01,0.0039057576832961724
2024-07-02,0.006252764647207327
2024-07-03,0.006538086860277775
2024-07-04,0.0017705893870354067
2024-07-05,-0.0063823254881480145
2024-07-08,-0.008393010737166761
2024-07-09,-0.009883005564057815
2024-07-10,-0.01699863175902984
2024-07-11,-0.014130263283449622
2024-07-12,-0.006600315853146036
2024-07-15,-0.017812402836622006
2024-07-16,-0.014011363574709145
2024-07-17,-0.0019387091708140333
2024-07-18,-0.004614359622916238
2024-07-19,-0.0005400366826893918
2024-07-22,0.009821608376598928
2024-07-23,0.007206583923412804
2024-07-24,-0.002054909982719044
2024-07-25,0.011982963714705995
2024-07-26,0.0056552350348833
2024-07-29,-0.0150766488899046
2024-07-30,-0.017239083540565494
2024-07-31,-0.008251279476884966
2024-08-01,-0.018822398074978382
2024-08-02,-0.009652553346836
2024-08-05,0.009993046118536405
2024-08-06,0.010407018699645028
2024-08-07,0.01658142406034769
2024-08-08,0.02110721932678159
2024-08-09,0.01777287212115631
2024-08-12,0.01313111458845664
2024-08-13,0.015960258270320257
2024-08-14,0.009499471962864579
2024-08-15,0.010799739545435682
2024-08-16,0.006443243297791038
2024-08-19,0.009518025304143904
2024-08-20,0.004762642237912906
2024-08-21,0.005535429806387121
2024-08-22,-0.0031217944114292706
2024-08-23,-0.008847754928641366
2024-08-26,-0.0005644305252051557
2024-08-27,-0.005133395935161877
2024-08-28,-0.018443127847033988
2024-08-29,-0.011583716125735912
2024-08-30,-0.0021480809994319436
2024-09-02,-0.009425889500871771
2024-09-03,-0.005712061320411899
2024-09-04,-0.0017849190431886014
2024-09-05,0.0027654140649742854
2024-09-06,0.004266960761144646
2024-09-09,0.005261896712977788
2024-09-10,0.002018066849866047
2024-09-11,0.010189834880441064
2024-09-12,0.005967252460854669
2024-09-13,-0.0043259531085934055
2024-09-18,-0.007410336488908258
2024-09-19,-0.012668035158329871
2024-09-20,-0.03098347941365308
2024-09-23,-0.06327538861924498
2024-09-24,-0.08662950413897688
2024-09-25,-0.06640503704927347
2024-09-26,-0.051560866344390416
2024-09-27,-0.009558932970393334
2024-09-30,0.005709602168508809
2024-10-08,0.003278913543689116
2024-10-09,0.013482463064252825
2024-10-10,0.011143126967035025
2024-10-11,0.013191097344015528
2024-10-14,0.008851892397765933
2024-10-15,0.008054124978904884
2024-10-16,-0.0009401477358249796
2024-10-17,0.004540527759235566
2024-10-18,-0.007087281985935041
2024-10-21,-0.010909864401962042
2024-10-22,-0.0103823426601919
2024-10-23,-0.002665049237435763
2024-10-24,-3.158950483366494e-05
2024-10-25,-0.003369959311520114
2024-10-28,0.005615995701700734
2024-10-29,0.016228219556828107
2024-10-30,0.010002078678284974
2024-10-31,0.007836373573638936
2024-11-01,0.012377170118385038
2024-11-04,0.01679407268714759
2024-11-05,0.0012763323788659471
2024-11-06,0.014249559969383803
2024-11-07,0.0024618975194298856
2024-11-08,-0.0020961088972468803
2024-11-11,-0.01846647241034618
2024-11-12,-0.01292417066813984
2024-11-13,-0.022611370082787977
2024-11-14,-0.012757276208004941
2024-11-15,-0.00629074772623717
2024-11-18,-0.0029240538255114676
2024-11-19,-0.018376739205342267
2024-11-20,-0.010223311686033635
2024-11-21,-0.01319235691395128
2024-11-22,0.0038358157533152654
2024-11-25,0.01087390813208319
2024-11-26,0.007880937280450587
2024-11-27,-0.004380076879051237
2024-11-28,0.006974635008429479
2024-11-29,-0.0031738445254801077
2024-12-02,-0.01001919862036383
2024-12-03,-0.0006865133937648937
2024-12-04,0.005892850615142718
2024-12-05,-0.004517742216889952
2024-12-06,-0.004799058580504084
2024-12-09,-0.0017273334033197276
2024-12-10,-0.005866777988599203
2024-12-11,-0.003749918592047175
2024-12-12,0.006271158400550609
2024-12-13,0.0149867356260868
2024-12-16,0.00596802153145592
2024-12-17,0.009299121712445572
2024-12-18,0.0027910446815829428
2024-12-19,0.0030639874267742407
2024-12-20,-0.005966397880781632
2024-12-23,0.00185484494773782
2024-12-24,-0.00608537089113529
2024-12-25,-0.009700776824222157
2024-12-26,-0.024882424113127473
2024-12-27,-0.021750437938713285
2024-12-30,-0.007151038125228229
2024-12-31,0.0014161867161234937
2025-01-02,0.004205103475962022
2025-01-03,0.010451839416498097
2025-01-06,0.012910613079807107
2025-01-07,0.0037945192761656863
2025-01-08,0.002052464250510127
2025-01-09,0.0016979321365751011
2025-01-10,0.0030724101732116753
2025-01-13,-0.0010426723791490053
2025-01-14,0.008001105370577162
2025-01-15,0.009263705300239705
2025-01-16,0.011974620852197585
2025-01-17,0.010914259465696838
2025-01-20,-0.002627479573868217
2025-01-21,-0.012798639700239527
2025-01-22,-0.016780406927973474
2025-01-23,-0.019566186237478717
2025-01-24,-0.01730066011759444
2025-01-27,0.003119934311088049
2025-02-05,0.005707900602272845
2025-02-06,-0.0070205689461442546
2025-02-07,-0.008560371232281544
2025-02-10,-0.003981977108901209
2025-02-11,-0.008042209730076832
2025-02-12,-0.005110687384954462
2025-02-13,0.0008718951030393385
2025-02-14,0.012091643618620734
2025-02-17,0.010682256133783975
2025-02-18,0.013759806263692036
2025-02-19,0.008640347419934299
2025-02-20,0.00834759186471088
2025-02-21,-0.02560434168876763
2025-02-24,-0.028210837530622236
2025-02-25,-0.02651748226324642
2025-02-26,-0.0222096003268489
2025-02-27,-0.0003284835480692641
2025-02-28,0.017072821583175753
2025-03-03,0.015159548160486452
2025-03-04,0.0018570897078047169
2025-03-05,-0.0032460141741035503
2025-03-06,-0.02747992140230591
2025-03-07,-0.01704579295020645
2025-03-10,-0.012377437169254631
2025-03-11,0.0023498817832443147
2025-03-12,-0.0052053907351551874
2025-03-13,0.0019379455929665074
2025-03-14,-0.015399686765147594
2025-03-17,-0.014974612752508807
2025-03-18,-0.03646475141243874
2025-03-19,-0.030006601704229263
2025-03-20,-0.02391508168821222
2025-03-21,-0.011156584924759516
2025-03-24,-0.00991348610372527
2025-03-25,-0.0014885584953782055
2025-03-26,-0.0008946235273704336
2025-03-27,-0.012772278441861766
2025-03-28,-0.02812032002726575
2025-03-31,-0.05612189935622315
2025-04-01,-0.04577687950225501
2025-04-02,-0.03183719717561366
2025-04-03,-0.009512334185176361
2025-04-07,0.014037606014736359
2025-04-08,0.035872456366283625
2025-04-09,0.020307408390081005
2025-04-10,0.008730148116696902
2025-04-11,-0.0036881142529874827
2025-04-14,-0.0030723520025680083
2025-04-15,0.000963818346293336
2025-04-16,0.014326339010062564
2025-04-17,0.00757754722620483
2025-04-18,0.012102821026727639
2025-04-21,0.0050136825991301225
2025-04-22,0.008535988297562096
2025-04-23,0.006805792093330798
2025-04-24,0.017636989067143782
2025-04-25,0.007621595144671454
2025-04-28,0.00817193221018863
2025-04-29,0.000917935994230467
2025-04-30,-0.0058876117790105965
2025-05-06,-0.014570268357227897
2025-05-07,-0.006768204755653625
2025-05-08,-0.012197987078903108
2025-05-09,-0.0038615511968627635
2025-05-12,-0.004898448620048335
2025-05-13,0.0015979154151601386
2025-05-14,-0.001735826178990256
2025-05-15,0.00460633037506822
2025-05-16,-0.0012506687542758594
2025-05-19,0.0014362179027815401
2025-05-20,-0.0018528164594461567
2025-05-21,0.0002647972685215737
2025-05-22,0.007464965272154101
2025-05-23,0.0032326800420367048
2025-05-26,0.00717835782979567
2025-05-27,0.008968892871170343
2025-05-28,0.01508136176209236
2025-05-29,0.007943539154506156
2025-05-30,0.016682378080907813
2025-06-03,0.011993461620670193
2025-06-04,0.008073700057582466
2025-06-05,0.006018574174781935
2025-06-06,0.002204158494982086
2025-06-09,0.0026463008313810914
2025-06-10,-0.0005959744067436579
2025-06-11,0.002217104238466345
2025-06-12,-0.004512702472805299
2025-06-13,-0.0037307153403474316
2025-06-16,-0.0029612913364193034
2025-06-17,0.005222705025406761
2025-06-18,0.008568998390403143
2025-06-19,0.008278757801951014
2025-06-20,0.010476374106606155
2025-06-23,0.007302172999323533
2025-06-24,0.003744938972315221
2025-06-25,-0.008817613999203824
2025-06-26,-0.0037258730507258968
2025-06-27,-0.002002692387268584
2025-06-30,-0.006907124919492812
2025-07-01,-0.0063518490062981214
2025-07-02,0.0013735664239893173
2025-07-03,-0.0036196283976936
2025-07-04,0.0009443849253630635
2025-07-07,0.0031871942526209285
2025-07-08,0.01116152643757933
2025-07-09,0.011968248637575249
2025-07-10,0.01981369049654478
2025-07-11,0.013136972071421496
2025-07-14,0.006795419799125988
2025-07-15,-0.010898245474613565
2025-07-16,-0.006111716243247876
2025-07-17,-0.012299386076405329
2025-07-18,-0.005207625793223689
2025-07-21,0.006227334430169457
2025-07-22,0.016910600601247452
2025-07-23,0.006503388530233609
2025-07-24,0.012033014958495403
2025-07-25,0.006163702693433019
2025-07-28,0.0043820019900007515
2025-07-29,0.002042704056222276
2025-07-30,0.008688082662237044
2025-07-31,0.002706259344404412
2025-08-01,0.0012970477063076816
2025-08-04,-0.001753956949322913
2025-08-05,-0.0014036969856323807
2025-08-06,0.0015781830983242276
2025-08-07,0.004771224406075735
2025-08-08,0.012982512856595355
2025-08-11,0.022100678378363197
2025-08-12,0.01681497206235006
2025-08-13,0.009026024764785822
2025-08-14,0.007315582605778775
2025-08-15,0.01898779078573194
2025-08-18,0.017272901066031736
2025-08-19,0.011391408854248719
2025-08-20,0.017473142268145562
2025-08-21,0.04367226565499148
2025-08-22,0.020294434844685162
2025-08-25,0.024022656575786144
2025-08-26,0.018431866518523576
2025-08-27,0.01207478090547185
2025-08-28,-0.0377100893385309
2025-08-29,-0.018443675076768234
2025-09-01,-0.0392614104989013
2025-09-02,-0.027230596452147364
2025-09-03,-0.021348247959673917
2025-09-04,0.03565480119291459
2025-09-05,0.015601759394752826
2025-09-08,0.024676270153294197
2025-09-09,0.04009667561161909
2025-09-10,0.03558906444006299
2025-09-11,0.01720316969202124
2025-09-12,0.005413088698514414
2025-09-15,0.027549828779469335
2025-09-16,0.02157271708544358
2025-09-17,0.031122760132353995
2025-09-18,0.03397325476067406
2025-09-19,0.02808788446722821
2025-09-22,0.018950065763721685
2025-09-23,0.026323777128054546
2025-09-24,0.02134699503166393
2025-09-25,-0.017915281314002888
2025-09-26,0.0008344880173393569
2025-09-29,-0.037088851496730996
2025-09-30,-0.038693109824533514
2025-10-09,-0.04823848149909792
2025-10-10,-0.03144845460024133
2025-10-13,-0.04129868805848939
2025-10-14,0.004016277977406649
2025-10-15,-0.007331964752412853
2025-10-16,-0.009316447504167455
2025-10-17,0.029788843328829757
2025-10-20,0.03845066383270064
2025-10-21,0.020485241568785385
2025-10-22,0.03505776500162873
2025-10-23,0.03335476147259764
2025-10-24,-0.0043441624335179745
2025-10-27,-0.0176519401023371
2025-10-28,-0.024257681651465034
2025-10-29,-0.034774804276466426
2025-10-30,-0.01779540456596683
2025-10-31,-0.009772632802051437
2025-11-03,-0.017289798856937936
2025-11-04,-0.016967718988807876
2025-11-05,-0.01995312488593673
2025-11-06,-0.023811326891516518
2025-11-07,-0.028130748032442355
2025-11-10,-0.012270479836589993
2025-11-11,-0.0021571857394677603
2025-11-12,0.0018173089674247168
2025-11-13,-0.008411321498538578
2025-11-14,-0.012997930904163797
2025-11-17,-0.014317993026546981
2025-11-18,-0.0060928664411518
2025-11-19,0.0038403824607445344
2025-11-20,0.005123491003082127
2025-11-21,0.027027012706625476
2025-11-24,0.03153214320302736
2025-11-25,0.016505068596146324
2025-11-26,0.004898846603949988
2025-11-27,0.011260205482552186
2025-11-28,0.00910040312535777
2025-12-01,0.018591814916696453
2025-12-02,0.029002193782292435
2025-12-03,0.02883905750299514
2025-12-04,0.016195801559301358
2025-12-05,0.019156173258270744
2025-12-08,-0.0036085742821955202
2025-12-09,-0.016060454380510937
2025-12-10,-0.0016468723912306943
2025-12-11,-0.005645497234449706
2025-12-12,-0.012374373311235871
2025-12-15,0.011052001219550255
2025-12-16,0.0233223892358171
2025-12-17,0.014606946177361062
2025-12-18,0.023435847276614886
2025-12-19,0.026719305011038526
2025-12-22,0.01424469558367395
2025-12-23,0.014202155092081354
2025-12-24,0.005530070627192675
2025-12-25,0.017012771166288927
2025-12-26,0.020212364218037494
2025-12-29,0.027741382342186278
2025-12-30,0.02312098333624636
2025-12-31,0.027609154787766883
2026-01-05,0.03128166631180401
2026-01-06,0.0107283626122076
2026-01-07,0.011584391143001459
2026-01-08,0.014803038704288876
2026-01-09,0.020200518938764796
2026-01-12,-0.00023115199457063827
2026-01-13,0.0034437663967801526
2026-01-14,0.009752695029682361
2026-01-15,0.008019166404164548
2026-01-16,0.008000194251517972
2026-01-19,0.0036998253736821567
2026-01-20,0.030346866447347236
2026-01-21,0.017972643501350725
2026-01-22,-0.00017178933439511782
2026-01-23,-0.012046798790551759
2026-01-26,-0.020693139346092793
2026-01-27,-0.01649971701939685
2026-01-28,-0.03509062304248126
2026-01-29,-0.035097460468129824
2026-01-30,-0.032263242143291
2026-02-02,-0.0019882998787726334
2026-02-03,-0.01625275356351395
2026-02-04,-0.005909365219160068
2026-02-05,0.026165138628259994
2026-02-06,0.026312423822917888
2026-02-09,0.018657702973166476
2026-02-10,0.022692137748276556
2026-02-11,0.03855023724961316
2026-02-12,0.023415568592317297
2026-02-13,0.03262799293542231
2026-02-24,-0.00022417403423925092
2026-02-25,0.0033387838507812906
2026-02-26,-0.0023739889658157924
2026-02-27,-0.01261716911744791
2026-03-02,-0.02258691573471074
2026-03-03,0.0010872998344707233
2026-03-04,-0.009459229488854564
2026-03-05,-0.0189802476114139
2026-03-06,-0.01356595389123057
2026-03-09,-0.020220931031406167
2026-03-10,-0.03784323728510643
2026-03-11,-0.023840879435095448
2026-03-12,-0.022237590229392895
2026-03-13,-0.013364430753933013
2026-03-16,-0.008860143517621794
2026-03-17,0.008002331645598118
2026-03-18,0.001702758162154299
2026-03-19,0.001988408613997159
2026-03-20,0.0004418117622585569
2026-03-23,0.006864677777696563
2026-03-24,-0.006866368982464739
2026-03-25,-0.011059744428960988
2026-03-26,-0.014892338905138344
2026-03-27,-0.007845591306283695
2026-03-30,-0.0056241306246355306
2026-03-31,0.023218009264035083
2026-04-01,0.023791634903403466
2026-04-02,0.038174654624001984
2026-04-03,0.040049673541608724
2026-04-07,0.041891383819234865
2026-04-08,0.01517875522086285
2026-04-09,0.022836677336463787
2026-04-10,0.025356687371134445
2026-04-13,0.023300531466656872
2026-04-14,0.011344405613225007
2026-04-15,0.03596677310932352
2026-04-16,0.018270875539133553
2026-04-17,0.006187355628450809
2026-04-20,0.01588262911950764
2026-04-21,0.011059038217865379
2026-04-22,-0.0021810025290047406
2026-04-23,0.017549696695236667
2026-04-24,0.041997607539662404
2026-04-27,0.03790274621528749
2026-04-28,0.04817344301055026
2026-04-29,0.0609876524464598
2026-04-30,0.04974846188480057
2026-05-06,0.04529470932527554
2026-05-07,0.023945467673251054
2026-05-08,0.028076333562654772
2026-05-11,0.020779573733204916
2026-05-12,0.021200154720548658
2026-05-13,0.014250896215601857
2026-05-14,0.011015327096074695
2026-05-15,0.03672838647849744
2026-05-18,0.05140401488950536
2026-05-19,0.042625496351067424
2026-05-20,0.02097743839048912
2026-05-21,0.053318965107637416
2026-05-22,-0.004325939332541234
2026-05-25,-0.05617928298912593
2026-05-26,-0.034982060747023785
2026-05-27,-0.006034446984199466
2026-05-28,-0.011964460366645027
2026-05-29,0.0026207952551657674
2026-06-01,0.010241590389296635
2026-06-02,0.025996763090369985
2026-06-03,-0.011268046234014097
2026-06-04,-0.020472512406347027
2026-06-05,-0.008438340124074229
2026-06-08,0.05207660619020443
2026-06-09,0.04026114304742788
2026-06-10,0.0847169157002744
2026-06-11,0.11768070220215186
2026-06-12,0.135242389054553
2026-06-15,0.07425460181688098
2026-06-16,0.07399841945406373
2026-06-17,0.07423135677442387
