date,long_short
2015-03-12,-0.0429146553032585
2015-03-13,0.018573534511786616
2015-03-16,0.02058360061526318
2015-03-17,0.018386224028572318
2015-03-18,0.016887070809403243
2015-03-19,0.028814422675421877
2015-03-20,0.0021310031375595256
2015-03-23,-0.005515444814052833
2015-03-24,-0.0005690725774798178
2015-03-25,0.005398039404735155
2015-03-26,-0.007822415900122337
2015-03-27,0.009142983155878137
2015-03-30,0.018497757318955782
2015-03-31,0.02234422999872901
2015-04-01,0.008717054155168658
2015-04-02,0.010245089272520463
2015-04-03,0.017413872193512044
2015-04-07,0.029166443277644838
2015-04-08,-0.0033685224603896106
2015-04-09,-0.00342775855091082
2015-04-10,0.024101922383203633
2015-04-13,0.026780867281053417
2015-04-14,0.01942938613681909
2015-04-15,0.013521837179395396
2015-04-16,0.017277736453417757
2015-04-17,0.0284240223472774
2015-04-20,0.03317977485444653
2015-04-21,0.03812538772290076
2015-04-22,0.046392283766576156
2015-04-23,0.04567001820445876
2015-04-24,0.051714504809262846
2015-04-27,0.05335980344378443
2015-04-28,0.03865817016716157
2015-04-29,0.024526226859702325
2015-04-30,0.020737545508848685
2015-05-04,0.027710906064582826
2015-05-05,0.04079937113847748
2015-05-06,0.033953611700241
2015-05-07,0.03683490134512314
2015-05-08,0.03818450521129903
2015-05-11,0.037472996032905076
2015-05-12,0.023932000206655382
2015-05-13,0.030985175999372783
2015-05-14,0.04938376672259401
2015-05-15,0.07386169065472381
2015-05-18,0.0750658812708121
2015-05-19,0.05008707585515614
2015-05-20,0.04431218882718391
2015-05-21,0.02533996621188793
2015-05-22,-0.0012478068403617842
2015-05-25,0.009438195186910407
2015-05-26,-0.016366851098909625
2015-05-27,-0.01980552086732639
2015-05-28,-0.03488325436350457
2015-05-29,-0.043179309285865566
2015-06-01,-0.048925833925808834
2015-06-02,-0.0765646208102119
2015-06-03,-0.13050922849027297
2015-06-04,-0.1173683036302611
2015-06-05,-0.10579434804282441
2015-06-08,-0.1397475018184624
2015-06-09,-0.13041868029183543
2015-06-10,-0.10560568497101694
2015-06-11,-0.09481954322771104
2015-06-12,-0.1257503228090813
2015-06-15,-0.07906060072587182
2015-06-16,-0.08649454556474676
2015-06-17,-0.08969963554798553
2015-06-18,-0.0617835297151646
2015-06-19,-0.043878946627284615
2015-06-23,-0.04036951386298546
2015-06-24,-0.03213732740693753
2015-06-25,-0.002900383413168492
2015-06-26,0.029426232825844258
2015-06-29,0.012425988538238494
2015-06-30,-0.03062024216655608
2015-07-01,0.0023821337844150484
2015-07-02,0.013027956304052568
2015-07-03,0.016243521145702624
2015-07-06,-0.01698500446430534
2015-07-07,0.033715128750462134
2015-07-08,0.04142018492223623
2015-07-09,0.014671101644392991
2015-07-10,-0.00286188813945696
2015-07-13,-0.007817950959917719
2015-07-14,-0.044911645102552154
2015-07-15,-0.015770392095000575
2015-07-16,-0.01822320798699799
2015-07-17,-0.030760346148629335
2015-07-20,-0.03499041380855731
2015-07-21,-0.04249214233088089
2015-07-22,-0.04019422533271509
2015-07-23,-0.04473673214634098
2015-07-24,-0.05507154359540501
2015-07-27,-0.03330420614523161
2015-07-28,-0.07835490281579854
2015-07-29,-0.07235693368504591
2015-07-30,-0.04680403325781349
2015-07-31,-0.041183133458213825
2015-08-03,-0.024296841320183934
2015-08-04,-0.04418886077874458
2015-08-05,-0.04446856544120986
2015-08-06,-0.034194834390105025
2015-08-07,-0.03158534954429468
2015-08-10,-0.04393662267438224
2015-08-11,-0.03764868005070347
2015-08-12,-0.03755841600169023
2015-08-13,-0.04157148231254022
2015-08-14,-0.06826113578686191
2015-08-17,-0.05516357002535188
2015-08-18,-0.05345870721728854
2015-08-19,-0.05802148697747135
2015-08-20,-0.03312977642289201
2015-08-21,-0.02581399026813419
2015-08-24,-0.0011606561303535538
2015-08-25,0.03667168626455035
2015-08-26,0.02596736852067469
2015-08-27,0.016574313083427595
2015-08-28,0.011429646387246258
2015-08-31,0.005299146498626443
2015-09-01,0.013394537278403945
2015-09-02,0.019754993688077635
2015-09-07,0.007977883283111768
2015-09-08,0.016605317085538775
2015-09-09,0.0075868508581993545
2015-09-10,0.009621620261190802
2015-09-11,0.009440539779234279
2015-09-14,0.034203773797367616
2015-09-15,0.04722346256274078
2015-09-16,0.02369077145992254
2015-09-17,0.03408322036495882
2015-09-18,0.03151769997411243
2015-09-21,0.023489281746166067
2015-09-22,0.02050875624350574
2015-09-23,0.010723629992031178
2015-09-24,0.0074287127900238975
2015-09-25,0.018489103845274496
2015-09-28,0.005084893582549099
2015-09-29,-0.0019368072008346393
2015-09-30,0.027833141149465446
2015-10-08,0.03779093205430453
2015-10-09,0.0491426240435819
2015-10-12,0.046474051765158286
2015-10-13,0.04514882927571034
2015-10-14,0.05721532587388958
2015-10-15,0.04795005715972398
2015-10-16,0.0475856685467744
2015-10-19,0.05063946315393533
2015-10-20,0.041193853552423415
2015-10-21,0.04827563334360574
2015-10-22,0.04390922389582899
2015-10-23,0.04234677316995589
2015-10-26,0.04018186431659339
2015-10-27,0.039740943398019146
2015-10-28,0.061573708651489645
2015-10-29,0.056321109334459545
2015-10-30,0.02597601006430387
2015-11-02,0.036048984020938424
2015-11-03,0.0407724098891202
2015-11-04,0.010534794099620902
2015-11-05,0.02908799775685706
2015-11-06,0.013551635583393966
2015-11-09,0.006257222582712319
2015-11-10,0.0033958643107502434
2015-11-11,-0.004482336170793692
2015-11-12,0.003631023400644768
2015-11-13,-0.0028096218299601683
2015-11-16,0.0006528255362259813
2015-11-17,0.0160624845176299
2015-11-18,0.01162730731405547
2015-11-19,0.01642796272059789
2015-11-20,0.018564818077708187
2015-11-23,0.03406732726436224
2015-11-24,0.022362545539685127
2015-11-25,0.015421575413477906
2015-11-26,0.010855712513743438
2015-11-27,0.026336175646972635
2015-11-30,0.024207686835308675
2015-12-01,0.0264341157074321
2015-12-02,0.03842932681271153
2015-12-03,0.005497208752308937
2015-12-04,-0.011680695244871938
2015-12-07,0.02446853925149018
2015-12-08,-0.009549689291035834
2015-12-09,-0.0022475923229233544
2015-12-10,0.0003127152990234257
2015-12-11,0.003991819024204812
2015-12-14,-0.0024468192683665124
2015-12-15,-0.016359572929643282
2015-12-16,-0.03699900379370068
2015-12-17,-0.027014948058982677
2015-12-18,-0.027308092926294172
2015-12-21,-0.03465232226156793
2015-12-22,-0.031010316151498046
2015-12-23,-0.01821343988161822
2015-12-24,-0.018557507453256114
2015-12-25,-0.017153562772377576
2015-12-28,-0.02790386169105702
2015-12-29,-0.029789377946685736
2015-12-30,-0.04259897014104086
2015-12-31,-0.05045290661893673
2016-01-04,-0.03055530164276589
2016-01-05,-0.03937232378305483
2016-01-06,-0.026208148793224903
2016-01-07,-0.021432439395999647
2016-01-08,-0.018312256896298465
2016-01-11,-0.01090779080289371
2016-01-12,-0.016237878365059216
2016-01-13,0.0036655372989389187
2016-01-14,-0.006832589641057124
2016-01-15,-0.006333724967115531
2016-01-18,-0.007821433619596729
2016-01-19,-0.014001326418956128
2016-01-20,-0.0188208447497591
2016-01-21,-0.044286025272305955
2016-01-22,-0.05100237595738904
2016-01-25,-0.06101415579707133
2016-01-26,-0.03683905134568619
2016-01-27,-0.0318428766085473
2016-01-28,-0.016255231581781167
2016-01-29,-0.023190337963719453
2016-02-01,-0.018049471001195715
2016-02-02,-0.022300792794617788
2016-02-03,-0.02713536939605981
2016-02-04,-0.025256282163578083
2016-02-05,-0.033310961829965485
2016-02-15,-0.03637003815105416
2016-02-16,-0.043019095967934746
2016-02-17,-0.03161471486381595
2016-02-18,-0.026627559455547883
2016-02-19,-0.02343499660884229
2016-02-22,-0.024216058500433662
2016-02-23,-0.02355176316657744
2016-02-24,-0.025677132669352426
2016-02-25,-0.009349346075707421
2016-02-26,-0.003519612906351763
2016-02-29,0.007280657146575456
2016-03-01,0.006009682548404262
2016-03-02,0.012509497865392821
2016-03-03,-0.001631014674499276
2016-03-04,0.004200094765079279
2016-03-07,0.015452471470292998
2016-03-08,0.011314228916175739
2016-03-09,0.010716707933224351
2016-03-10,0.001472754360923298
2016-03-11,0.010471962563858642
2016-03-14,0.014266088720458536
2016-03-15,0.011290295069513005
2016-03-16,-0.005496179501498034
2016-03-17,-0.0033394748067153354
2016-03-18,-0.0029726447908200934
2016-03-21,-0.029581931346149185
2016-03-22,-0.03458538760186671
2016-03-23,-0.04834480396086051
2016-03-24,-0.04619220826373872
2016-03-25,-0.03996839276351433
2016-03-28,-0.028368054521281043
2016-03-29,-0.027378238006032028
2016-03-30,-0.03215893786896688
2016-03-31,-0.030579485183593182
2016-04-01,-0.013787559616080972
2016-04-05,-0.019747518859354024
2016-04-06,-0.0206276968096784
2016-04-07,5.7887442332623176e-05
2016-04-08,-0.022066723026476144
2016-04-11,-0.015886914937457048
2016-04-12,-0.017113707638361446
2016-04-13,-0.005205720229526055
2016-04-14,0.0063569266565446925
2016-04-15,0.00015013380696743406
2016-04-18,-0.008569684590795948
2016-04-19,0.00832389275132469
2016-04-20,0.019206284134774182
2016-04-21,0.02394995941437879
2016-04-22,0.019339297345263618
2016-04-25,0.008509667622039668
2016-04-26,-0.007772183860942403
2016-04-27,-0.004749053684830664
2016-04-28,-0.004638586372351785
2016-04-29,0.0033338398110627464
2016-05-03,-0.013404145554952729
2016-05-04,-0.01754210084080716
2016-05-05,-0.01787473298871162
2016-05-06,-0.0199250369251623
2016-05-09,-0.00901010926208778
2016-05-10,-0.017677620676100323
2016-05-11,-0.014511687987205504
2016-05-12,0.002885767022885132
2016-05-13,-0.02063097450746505
2016-05-16,-0.01395563538904989
2016-05-17,-0.007275891109903666
2016-05-18,-0.007548826563865352
2016-05-19,-0.016486487725707044
2016-05-20,-0.010569193523548393
2016-05-23,-0.013450772176899356
2016-05-24,-0.006731562708839112
2016-05-25,0.02249054332353656
2016-05-26,0.02664689319797656
2016-05-27,0.02587129350416798
2016-05-30,0.022061866751257698
2016-05-31,0.01917840848194122
2016-06-01,0.00982030398504433
2016-06-02,0.010242039385010178
2016-06-03,0.010661929100879153
2016-06-06,0.003349695296995291
2016-06-07,0.014722549169512348
2016-06-08,0.018426587973571024
2016-06-13,-0.0023763952079310924
2016-06-14,0.01184035666630244
2016-06-15,-0.006454816930506063
2016-06-16,-0.019391532933522616
2016-06-17,-0.011303838424863676
2016-06-20,-0.01020470722061765
2016-06-21,-0.011687430149470462
2016-06-22,-0.002632525569729982
2016-06-23,-0.006350199692976746
2016-06-24,-0.015406812803334599
2016-06-27,-0.025252369574791482
2016-06-28,-0.022855578036611306
2016-06-29,-0.026423332961466484
2016-06-30,-0.03282395818137772
2016-07-01,-0.03405313155943133
2016-07-04,-0.041357200200237
2016-07-05,-0.04075912356759687
2016-07-06,-0.032218809516538105
2016-07-07,-0.030707537178288544
2016-07-08,-0.03976335437050549
2016-07-11,-0.035274219461544166
2016-07-12,-0.032745238950126335
2016-07-13,-0.025473216969548042
2016-07-14,-0.030903203405539103
2016-07-15,-0.030776759919129183
2016-07-18,-0.01970558994055664
2016-07-19,-0.01741370062285179
2016-07-20,-0.02192120581730624
2016-07-21,-0.00530541812991164
2016-07-22,-0.008674136831981098
2016-07-25,-0.011918304017229316
2016-07-26,-0.013206880141603788
2016-07-27,-0.015016517925652506
2016-07-28,-0.0162824897866529
2016-07-29,-0.014203340193474495
2016-08-01,-0.008854159506535689
2016-08-02,-0.005480731415343457
2016-08-03,-0.004125047964307835
2016-08-04,-0.013008931902351212
2016-08-05,-0.009743700833636317
2016-08-08,-0.0021620845781023454
2016-08-09,-0.0045896440626362715
2016-08-10,-0.007210212380601572
2016-08-11,-0.0038742014271737624
2016-08-12,-0.0066206680415758605
2016-08-15,-0.0018322714054348488
2016-08-16,-0.006641634817089546
2016-08-17,0.00919335023541187
2016-08-18,-0.006567961817194426
2016-08-19,-0.006533717862835863
2016-08-22,-0.00776063867608575
2016-08-23,-0.0062142727683063715
2016-08-24,-0.0066596180588596385
2016-08-25,-0.0007188384007512545
2016-08-26,-0.005781188282656079
2016-08-29,-0.005202082570932606
2016-08-30,-0.007357578378385345
2016-08-31,-0.0014841556977296562
2016-09-01,-0.0178865656491839
2016-09-02,-0.008739176050983798
2016-09-05,-0.013184239571438962
2016-09-06,-0.004180604550846891
2016-09-07,-0.007005105160227646
2016-09-08,-0.007630958695433515
2016-09-09,0.010079573084750099
2016-09-12,-0.013136518665914396
2016-09-13,-0.0009476652693364181
2016-09-14,-0.021463526646656607
2016-09-19,-0.020890131849673386
2016-09-20,-0.018370014491448525
2016-09-21,-0.018151668940569684
2016-09-22,-0.012558793526831709
2016-09-23,-0.01283218199048437
2016-09-26,-0.015639939895912218
2016-09-27,-0.0077478332022380345
2016-09-28,-0.01000311700980936
2016-09-29,-0.009318573480663499
2016-09-30,-0.013913214346649692
2016-10-10,-0.0015426952161064524
2016-10-11,-0.007053131692138229
2016-10-12,0.006795033754630853
2016-10-13,-0.00019674103966307172
2016-10-14,0.0029894469257477317
2016-10-17,-0.0007859351980364984
2016-10-18,-0.016773492962845794
2016-10-19,-0.0026153905507851002
2016-10-20,-0.009413367726856976
2016-10-21,-0.011998437853014129
2016-10-24,-0.0045573664791181065
2016-10-25,0.0005424575468251369
2016-10-26,-0.005116063483184375
2016-10-27,0.0021475171762608963
2016-10-28,-0.001754932352858514
2016-10-31,0.0008181321298026886
2016-11-01,-0.008648757693358475
2016-11-02,-0.003389912894144545
2016-11-03,-0.009488086814069839
2016-11-04,-0.010211611370826042
2016-11-07,-0.007050192827661728
2016-11-08,0.00039482808100089334
2016-11-09,-0.012263532711965935
2016-11-10,-0.00940890372123519
2016-11-11,-0.014223274528132528
2016-11-14,-0.01053653113806536
2016-11-15,-0.008277019491439119
2016-11-16,-0.0011309753511701513
2016-11-17,-0.019230420029497205
2016-11-18,-0.0046042801182944616
2016-11-21,-0.006350144030044854
2016-11-22,-0.0012647530360907489
2016-11-23,-0.010234075893371296
2016-11-24,-0.015545168309623249
2016-11-25,-0.013300035923904031
2016-11-28,0.009847195184254628
2016-11-29,0.006293838339453343
2016-11-30,-0.003734406808389344
2016-12-01,0.004111131254310479
2016-12-02,-0.004995455834902025
2016-12-05,-0.030434336301525693
2016-12-06,-0.028352217184962773
2016-12-07,-0.014518755274351196
2016-12-08,-0.024201108334589664
2016-12-09,-0.02162841202733433
2016-12-12,-0.03747732216890401
2016-12-13,-0.0372870771467891
2016-12-14,-0.03747161501234421
2016-12-15,-0.017799161366526817
2016-12-16,-0.024731567827595127
2016-12-19,-0.020196816945838282
2016-12-20,-0.027015301035485034
2016-12-21,-0.01617158060733162
2016-12-22,-0.01509292125988721
2016-12-23,-0.017602796709103585
2016-12-26,-0.014447372855238248
2016-12-27,-0.0061738905159851734
2016-12-28,-0.006286608015941893
2016-12-29,-0.012407070635449883
2016-12-30,-0.0005560406300863874
2017-01-03,0.005311717004471911
2017-01-04,-0.004034609623663959
2017-01-05,-0.0008196074149762957
2017-01-06,-0.012119837668163562
2017-01-09,-0.004927180425263558
2017-01-10,9.358673638504289e-05
2017-01-11,-0.002487026676218437
2017-01-12,0.00394399697304881
2017-01-13,-0.00014016059368141334
2017-01-16,-0.004749609492170376
2017-01-17,-0.006956386623291393
2017-01-18,-0.009458127021553922
2017-01-19,0.004848181470283944
2017-01-20,0.0029225027670748763
2017-01-23,0.005898763624118411
2017-01-24,0.00206593915046277
2017-01-25,-0.009181807314425933
2017-01-26,-0.005603556875269856
2017-02-03,-0.0073479774743449595
2017-02-06,-0.01029075119040315
2017-02-07,-0.00671396876770778
2017-02-08,-1.831177059943498e-05
2017-02-09,0.0024312102675920298
2017-02-10,0.005751996716675108
2017-02-13,0.0013983584345244144
2017-02-14,-0.003530851342687741
2017-02-15,0.002684287131182331
2017-02-16,-0.0036011146704334057
2017-02-17,-0.0012002122012089098
2017-02-20,-0.008876691207580037
2017-02-21,-0.013831405270973374
2017-02-22,-0.0017650312484195907
2017-02-23,-0.0020403994581197887
2017-02-24,-0.007583653270660276
2017-02-27,-0.010094276628342336
2017-02-28,-0.0028532175267521687
2017-03-01,0.0004539138325892573
2017-03-02,0.006559036380610708
2017-03-03,0.025164770604461234
2017-03-06,0.011432770715906426
2017-03-07,0.007210706123210685
2017-03-08,0.005858251939307266
2017-03-09,0.013041079302705231
2017-03-10,0.012763065770830464
2017-03-13,0.022275323990042024
2017-03-14,0.009925006501494221
2017-03-15,0.017632546492584902
2017-03-16,0.022931609980382666
2017-03-17,0.020914787081740167
2017-03-20,0.02668789990222457
2017-03-21,0.023235983338951962
2017-03-22,0.02772664715610565
2017-03-23,0.02228091971621319
2017-03-24,0.029827692706919227
2017-03-27,0.02984022917060291
2017-03-28,0.017033838099251065
2017-03-29,0.022108103738126467
2017-03-30,0.013090205172197934
2017-03-31,0.005666979495841801
2017-04-05,0.003657879436212791
2017-04-06,0.027946490879874508
2017-04-07,0.02453268803404716
2017-04-10,0.008313165913820482
2017-04-11,0.024767175850687356
2017-04-12,-0.0017765553225956923
2017-04-13,0.006156304861062403
2017-04-14,0.005502515714803171
2017-04-17,0.0010134158975241645
2017-04-18,-0.0018455978974033036
2017-04-19,-0.010187213666496164
2017-04-20,-0.010817844762002853
2017-04-21,-0.013479889182323497
2017-04-24,-0.006398278391286446
2017-04-25,0.01959144549854403
2017-04-26,0.002810518712276231
2017-04-27,-0.01251856769573519
2017-04-28,0.0022690707056820247
2017-05-02,0.01328364965743209
2017-05-03,-0.0023463151721671016
2017-05-04,0.0005627834820785271
2017-05-05,-0.015128993642429627
2017-05-08,-0.007521710019698379
2017-05-09,0.0037480086062051145
2017-05-10,-0.005245366576285326
2017-05-11,-0.002729789600401912
2017-05-12,0.009206778984075986
2017-05-15,-0.0014808861737150118
2017-05-16,0.006429377324315543
2017-05-17,0.00029689828510956473
2017-05-18,-0.0014907024777612993
2017-05-19,0.004162297865315301
2017-05-22,0.009429387784694696
2017-05-23,0.000363748480146725
2017-05-24,0.007843737239189803
2017-05-25,0.014803258104149973
2017-05-26,0.024655039131631723
2017-05-31,0.02154360634548213
2017-06-01,0.010992890883228051
2017-06-02,0.008243370228809735
2017-06-05,0.00307939726175626
2017-06-06,0.006594838697760029
2017-06-07,0.01213351628029168
2017-06-08,0.014202263189391193
2017-06-09,0.012612588572962356
2017-06-12,-0.00134250335233713
2017-06-13,-0.0006678137357845407
2017-06-14,-7.108093904424628e-05
2017-06-15,0.0005138768143005679
2017-06-16,0.006305992949908058
2017-06-19,0.022895445482084748
2017-06-20,0.011499671605820279
2017-06-21,0.005243684858020341
2017-06-22,0.007913771002183104
2017-06-23,0.0036277685642757684
2017-06-26,0.007505114553566672
2017-06-27,0.004213224912346346
2017-06-28,-0.0033322822503013654
2017-06-29,0.0001795719449484822
2017-06-30,-0.0006098690039567436
2017-07-03,0.004599796728066364
2017-07-04,0.0034757852478921776
2017-07-05,-0.001929994184490462
2017-07-06,0.01683744024678068
2017-07-07,0.03369111235789752
2017-07-10,0.030989152904926497
2017-07-11,0.025738191363132684
2017-07-12,0.027172040358054997
2017-07-13,0.027023480807118937
2017-07-14,0.014465100761844204
2017-07-17,-0.013147241317321836
2017-07-18,-0.010158669792858992
2017-07-19,-0.010997850766649905
2017-07-20,-0.012620440628140864
2017-07-21,-0.010477341151613547
2017-07-24,-0.019067012527631495
2017-07-25,-0.008547046590896112
2017-07-26,-0.012788542390258752
2017-07-27,0.003254055672143579
2017-07-28,0.0023430759223908373
2017-07-31,0.00014061698519265975
2017-08-01,0.0044530073513391055
2017-08-02,0.0020991615395929315
2017-08-03,0.003877656711009897
2017-08-04,0.009832245993378348
2017-08-07,0.003605047924599758
2017-08-08,0.006737311070065845
2017-08-09,0.0025738747081087594
2017-08-10,-0.0010489045673098794
2017-08-11,0.005658279901808082
2017-08-14,0.001626680462389049
2017-08-15,0.0052229379356344904
2017-08-16,0.009491430573522447
2017-08-17,0.006175252964205319
2017-08-18,0.007561842424769243
2017-08-21,0.006375970374868888
2017-08-22,0.006449202420680027
2017-08-23,-0.004357033717175444
2017-08-24,-0.009342001122163067
2017-08-25,-0.0037161322172014795
2017-08-28,-0.00222542307770283
2017-08-29,-0.008942709953974615
2017-08-30,-0.013087906750519195
2017-08-31,0.0019290763347422912
2017-09-01,-0.003528753785976204
2017-09-04,-0.00841326240374018
2017-09-05,-0.007971660426709602
2017-09-06,-0.005789801277568384
2017-09-07,-0.018287775728552398
2017-09-08,-0.016549645233481215
2017-09-11,-0.0053739651705208
2017-09-12,-0.01179673674600494
2017-09-13,-0.008760650384946684
2017-09-14,-0.006851999785842732
2017-09-15,-0.013939627881751947
2017-09-18,-0.011136181332889006
2017-09-19,-0.011370097360017376
2017-09-20,-0.009874238951644463
2017-09-21,-0.016062640235198086
2017-09-22,-0.008815602212412014
2017-09-25,-0.007859581487208032
2017-09-26,0.003451022888052213
2017-09-27,-0.0017175527032538274
2017-09-28,-0.0011023566170111597
2017-09-29,-0.0009842949185318115
2017-10-09,0.007757212734885888
2017-10-10,-0.0018694492683253294
2017-10-11,-0.008697622397484952
2017-10-12,0.008585980153375928
2017-10-13,0.009720956529217619
2017-10-16,-6.869783231200355e-05
2017-10-17,0.006596660163834322
2017-10-18,0.003133998903913398
2017-10-19,0.009423902340827973
2017-10-20,0.022005001909356683
2017-10-23,0.015441714196450556
2017-10-24,0.018020299175595476
2017-10-25,0.010865300875566752
2017-10-26,0.016929140196159508
2017-10-27,0.004003928395823154
2017-10-30,0.015364442900107163
2017-10-31,0.011330139957413629
2017-11-01,0.009772838974406754
2017-11-02,0.0028624449059617097
2017-11-03,0.005705865882712764
2017-11-06,0.010515829595729062
2017-11-07,0.01870747557632955
2017-11-08,0.01526377209322264
2017-11-09,0.009609280114274539
2017-11-10,0.002178054686753455
2017-11-13,0.003412936897164794
2017-11-14,0.0024357567462189172
2017-11-15,0.0023397995119925144
2017-11-16,0.0038156119724200525
2017-11-17,-0.010057095330323907
2017-11-20,-0.01488895990463298
2017-11-21,-0.0212022960053876
2017-11-22,-0.0108244584074225
2017-11-23,-0.001002616370717158
2017-11-24,-6.937402426582598e-05
2017-11-27,0.0060264671873410764
2017-11-28,0.002496391137050263
2017-11-29,0.011137194422056903
2017-11-30,0.016370248523704087
2017-12-01,0.016356319699923932
2017-12-04,0.008474079311748536
2017-12-05,-0.004303002066069893
2017-12-06,-0.005663169459065875
2017-12-07,-0.005199281216163181
2017-12-08,-0.007474207009918257
2017-12-11,-0.01330724837386369
2017-12-12,-0.0006891124708206485
2017-12-13,0.00513483464921561
2017-12-14,-0.008225653293127223
2017-12-15,0.007431412971803178
2017-12-18,0.022788391587966212
2017-12-19,0.010862421313090745
2017-12-20,0.014573799159032903
2017-12-21,0.007166079779085873
2017-12-22,0.006288483471324508
2017-12-25,0.0034093538719374566
2017-12-26,-0.007367187955879505
2017-12-27,0.0006559900091166679
2017-12-28,-0.0076198763373001716
2017-12-29,-0.003736248664682293
2018-01-02,-0.002271874192763944
2018-01-03,0.0119108441690366
2018-01-04,0.02870522356476453
2018-01-05,0.025977344854500282
2018-01-08,0.02698105706340219
2018-01-09,0.0373882443375281
2018-01-10,0.03255432475751077
2018-01-11,0.03028434878325379
2018-01-12,0.03464665849160925
2018-01-15,0.006067454513749612
2018-01-16,0.011040131357363092
2018-01-17,0.01840115084578496
2018-01-18,0.016550315360328666
2018-01-19,0.018126811558356007
2018-01-22,-0.005360708935689684
2018-01-23,-0.009516284266676937
2018-01-24,0.0021110774538290883
2018-01-25,0.0037603994907667165
2018-01-26,0.0034350983047346934
2018-01-29,-0.004068627969328255
2018-01-30,-0.00021725332165334343
2018-01-31,-0.011024915884526365
2018-02-01,-0.022317958494566935
2018-02-02,-0.03567056638242695
2018-02-05,-0.04682887587165067
2018-02-06,-0.06810384515607809
2018-02-07,-0.04154901050321168
2018-02-08,-0.038874127747285485
2018-02-09,-0.04297331324100688
2018-02-12,-0.02677073044994889
2018-02-13,-0.03493735630831002
2018-02-14,-0.03476826759831904
2018-02-22,-0.03826697176565884
2018-02-23,-0.01208917995844248
2018-02-26,-0.021262154895970563
2018-02-27,-0.03012197377435584
2018-02-28,-0.025880392746143722
2018-03-01,-0.015464472724231815
2018-03-02,-0.024614026698031276
2018-03-05,-0.02217851367886346
2018-03-06,-0.014558579426407592
2018-03-07,-0.017376374235744497
2018-03-08,-0.023615979348496845
2018-03-09,-0.009362619730500673
2018-03-12,-0.0027669922285985978
2018-03-13,-0.0014289147812028072
2018-03-14,-0.007002760414275933
2018-03-15,-0.015510389420247846
2018-03-16,-0.008890404967486436
2018-03-19,-0.021360330065165627
2018-03-20,-0.02741212102353855
2018-03-21,-0.012492683481734698
2018-03-22,0.0029539826857801765
2018-03-23,-0.016517905126600903
2018-03-26,-0.015430409503525939
2018-03-27,-0.007341085854402792
2018-03-28,-0.015198104664868475
2018-03-29,-0.011638303056251322
2018-03-30,-0.010871346228115236
2018-04-02,-0.007934766216056967
2018-04-03,-0.011116687464878828
2018-04-04,-0.009068098871023214
2018-04-09,-0.006169677457777702
2018-04-10,-0.008114412511399506
2018-04-11,-0.009085607985730843
2018-04-12,-0.0070894319240906245
2018-04-13,-0.00684336314785928
2018-04-16,5.9377761029596327e-05
2018-04-17,-0.004271246418008646
2018-04-18,-0.0043040105373246575
2018-04-19,-0.004779777365538952
2018-04-20,-0.014071353231160974
2018-04-23,-0.012430890892190686
2018-04-24,-0.008790623261638536
2018-04-25,-0.005486511259261413
2018-04-26,0.0022285606779570283
2018-04-27,0.007772807170468738
2018-05-02,0.012232170860855911
2018-05-03,0.009402663111569351
2018-05-04,0.01408830037709206
2018-05-07,0.01734465125720578
2018-05-08,0.013369020369846028
2018-05-09,0.009219205193884604
2018-05-10,0.008868759258898296
2018-05-11,0.012333172534521385
2018-05-14,0.009097260135887193
2018-05-15,0.008758131228094802
2018-05-16,-0.0001109595225306792
2018-05-17,0.004513259545994668
2018-05-18,0.008862562340501777
2018-05-21,0.031856712821020185
2018-05-22,0.027030499497585764
2018-05-23,0.021975844251421434
2018-05-24,0.013739752314153565
2018-05-25,0.006807977768486073
2018-05-28,0.019536156426507238
2018-05-29,0.017625673284410448
2018-05-30,0.0210791389417389
2018-05-31,0.019186480401073146
2018-06-01,0.03028641969846456
2018-06-04,0.02464219637366708
2018-06-05,0.024699899881082607
2018-06-06,0.017895465688960957
2018-06-07,0.0271841142284292
2018-06-08,0.01932578480908436
2018-06-11,0.01818231725567026
2018-06-12,0.025130993184297568
2018-06-13,0.021533008994265378
2018-06-14,0.027049760098087544
2018-06-15,0.025659489138976012
2018-06-19,0.00643798913350049
2018-06-20,0.011703642953421304
2018-06-21,0.003750777356729079
2018-06-22,-0.00011612331760489474
2018-06-25,-0.011250354304485892
2018-06-26,-0.020856437900809124
2018-06-27,-0.014063583435966611
2018-06-28,-0.01896683044347522
2018-06-29,-0.018340175032574697
2018-07-02,-0.03967977606070047
2018-07-03,-0.03154645886909679
2018-07-04,-0.018391058712878366
2018-07-05,-0.016655852786771876
2018-07-06,-0.015365160383142649
2018-07-09,-0.013386581260236112
2018-07-10,-0.015969410894290516
2018-07-11,-0.020260123142635995
2018-07-12,-0.018695174099204057
2018-07-13,-0.01934490500803117
2018-07-16,-0.02013611008977679
2018-07-17,-0.014206632297403115
2018-07-18,-0.015836247357998132
2018-07-19,-0.017671677844859218
2018-07-20,-0.024617212202036415
2018-07-23,-0.012301525791942665
2018-07-24,-0.008585167630103481
2018-07-25,-0.00478255094358903
2018-07-26,-0.003415843548621303
2018-07-27,0.004989024671318586
2018-07-30,0.011842718687474187
2018-07-31,0.008294575268382395
2018-08-01,0.008293897660354623
2018-08-02,0.002695874881032994
2018-08-03,0.00653858558350435
2018-08-06,0.0009075392110609512
2018-08-07,0.008199881494684091
2018-08-08,0.011423485607749868
2018-08-09,0.012898496042088578
2018-08-10,0.009629688876832163
2018-08-13,0.008295512985882957
2018-08-14,0.00939349869467735
2018-08-15,0.009244479993274896
2018-08-16,0.006178966224392325
2018-08-17,0.005584966654414375
2018-08-20,0.0033956929389697653
2018-08-21,-0.0022010824928347
2018-08-22,-0.007576564314321823
2018-08-23,-0.0041467147723987996
2018-08-24,-0.009069927243858862
2018-08-27,-0.005086219570781041
2018-08-28,-0.006889295763361154
2018-08-29,-0.008623411019949971
2018-08-30,-0.006840746475713611
2018-08-31,-0.005556308369125866
2018-09-03,-0.004704654568943185
2018-09-04,-0.00848415545035211
2018-09-05,0.0032869767500006003
2018-09-06,0.0029141434006167907
2018-09-07,0.005346950493545569
2018-09-10,0.0058419257366729566
2018-09-11,0.005721671518848323
2018-09-12,0.012675782838814036
2018-09-13,0.021622204900956773
2018-09-14,0.01816579895795767
2018-09-17,0.010410348880026043
2018-09-18,0.004064063558159137
2018-09-19,0.011467048088071467
2018-09-20,0.01939097683036227
2018-09-21,0.00480897396240372
2018-09-25,-0.004152445222333066
2018-09-26,-0.0008465638234409212
2018-09-27,-0.003864549168748052
2018-09-28,-0.002105415084992221
2018-10-08,-0.007361324101759667
2018-10-09,-0.010685761293626236
2018-10-10,-0.009335375833475244
2018-10-11,-0.020254830084502858
2018-10-12,-0.027789396841616743
2018-10-15,-0.026350215821559303
2018-10-16,-0.040135511094782236
2018-10-17,-0.04315574466036187
2018-10-18,-0.05829017168721114
2018-10-19,-0.05700377122908874
2018-10-22,-0.041152682500826494
2018-10-23,-0.035652796596268244
2018-10-24,-0.014809942509823627
2018-10-25,-0.015864489524951307
2018-10-26,-0.013227270527411081
2018-10-29,-0.005125049195408678
2018-10-30,-0.010532529377245798
2018-10-31,-0.011710634234085018
2018-11-01,-0.005405970151992203
2018-11-02,-0.007795410010492453
2018-11-05,-0.002941523556145631
2018-11-06,0.0004835444618404173
2018-11-07,0.004382421224203872
2018-11-08,0.004741228566834335
2018-11-09,0.0034771686550845488
2018-11-12,0.005185001543416319
2018-11-13,0.006522404494358295
2018-11-14,0.009935341113445073
2018-11-15,0.01240357494699319
2018-11-16,0.016792938831600473
2018-11-19,0.012943740515220275
2018-11-20,0.013736285764776965
2018-11-21,0.009703228837713612
2018-11-22,0.009387815012522848
2018-11-23,0.008079633453118521
2018-11-26,0.008584074582624265
2018-11-27,0.009463565288951346
2018-11-28,0.008374190333008347
2018-11-29,0.005407598098149193
2018-11-30,0.006262826961918967
2018-12-03,0.008222361732112438
2018-12-04,0.008146841747862621
2018-12-05,0.004615549778258926
2018-12-06,-0.0011577454624277887
2018-12-07,0.0026346383930906936
2018-12-10,0.0013763910411795505
2018-12-11,0.005063268664737039
2018-12-12,0.004437607767825227
2018-12-13,0.004419101309031247
2018-12-14,0.004737927481496656
2018-12-17,0.008341594679159889
2018-12-18,0.003396195677110978
2018-12-19,0.002417465681652917
2018-12-20,0.0016559869780165097
2018-12-21,0.0010727879289831495
2018-12-24,-0.0007558612116778593
2018-12-25,0.0011146918821106216
2018-12-26,0.004371432559196302
2018-12-27,-0.004435037408316307
2018-12-28,0.0016681275720978814
2019-01-02,0.0036592747661574124
2019-01-03,0.007683611274543381
2019-01-04,0.010961195350750824
2019-01-07,0.007247811892654686
2019-01-08,0.005046562091949036
2019-01-09,-0.005632065970979566
2019-01-10,0.0006325386615500805
2019-01-11,-0.0006656911392942041
2019-01-14,-0.010729123910105665
2019-01-15,-0.0036358662566523814
2019-01-16,-0.008797910257404631
2019-01-17,-0.008291596366444581
2019-01-18,-0.005946067542475897
2019-01-21,-0.013006807954836691
2019-01-22,-0.029705841686953074
2019-01-23,-0.022682543632461763
2019-01-24,-0.03489696274788898
2019-01-25,-0.03553065213704418
2019-01-28,-0.0359849580438554
2019-01-29,-0.051068929097246724
2019-01-30,-0.06688983441252053
2019-01-31,-0.07306576245776708
2019-02-01,-0.04565713899098808
2019-02-11,-0.0481098911567369
2019-02-12,-0.05251417536803375
2019-02-13,-0.0521683103330957
2019-02-14,-0.04551101992877411
2019-02-15,-0.04547456170032188
2019-02-18,-0.04374811190235074
2019-02-19,-0.03498035481655033
2019-02-20,-0.031585431109869264
2019-02-21,-0.03398946753734386
2019-02-22,-0.035711534721792254
2019-02-25,-0.03393070351110816
2019-02-26,-0.010560469194214377
2019-02-27,-0.006731531235046455
2019-02-28,0.0017120225442010459
2019-03-01,-0.001965338174607527
2019-03-04,-0.0006874908144245823
2019-03-05,-0.003841839909617825
2019-03-06,-0.0024734362348733385
2019-03-07,-0.0018815921497822505
2019-03-08,-0.006458733089611618
2019-03-11,-0.005476995247606198
2019-03-12,0.001982484806429846
2019-03-13,-0.001157918019102408
2019-03-14,-0.00028019315541835677
2019-03-15,0.003400568764694009
2019-03-18,0.006741366338899504
2019-03-19,0.004499875095797773
2019-03-20,0.002523480972296238
2019-03-21,0.005251522257100016
2019-03-22,0.001632711153955177
2019-03-25,0.00252701561927144
2019-03-26,-0.000314674682814646
2019-03-27,0.001189404829819607
2019-03-28,0.0013270967305937381
2019-03-29,-0.006758769984119797
2019-04-01,-0.007648465900799279
2019-04-02,-0.010353640536966052
2019-04-03,-0.00909146170768238
2019-04-04,-0.007497120904338961
2019-04-08,-0.0003140158192035114
2019-04-09,0.008736422894765547
2019-04-10,-0.0003885133671423374
2019-04-11,0.008988154983227525
2019-04-12,0.008985514888075918
2019-04-15,0.005408637941519259
2019-04-16,-0.005980425733347228
2019-04-17,-0.003919344919698087
2019-04-18,8.203329545319882e-05
2019-04-19,0.003083905809666748
2019-04-22,0.004247223272086972
2019-04-23,0.0016406748763411333
2019-04-24,0.003518540846799756
2019-04-25,0.004289753881148578
2019-04-26,0.009396500518680184
2019-04-29,0.013691857806113629
2019-04-30,0.017193860856139567
2019-05-06,0.017721246043877086
2019-05-07,0.014729423131645065
2019-05-08,0.010566678016511198
2019-05-09,0.004209138119616471
2019-05-10,-0.0013623336300781705
2019-05-13,0.003791976862941325
2019-05-14,0.0016607938523367505
2019-05-15,0.001615356262532855
2019-05-16,0.007502346098188324
2019-05-17,0.0025688756957404635
2019-05-20,0.0038304353522835566
2019-05-21,-0.004351431127597397
2019-05-22,-0.001980707108296738
2019-05-23,-0.009788225780505214
2019-05-24,-0.012623947084755505
2019-05-27,-0.013978370356085346
2019-05-28,-0.008757591720260555
2019-05-29,-0.009874768710104953
2019-05-30,-0.005239596176984343
2019-05-31,0.001983580580338297
2019-06-03,-0.0010755636049805395
2019-06-04,-0.010440695381890144
2019-06-05,-0.011369753239360098
2019-06-06,-0.0074120295999744595
2019-06-10,0.005213470573722595
2019-06-11,0.003997844705636883
2019-06-12,0.008178441770634629
2019-06-13,0.008921870914644199
2019-06-14,0.003630543356414301
2019-06-17,0.008136275657885286
2019-06-18,0.0031538036507086017
2019-06-19,0.00753390216424581
2019-06-20,0.009574563849758211
2019-06-21,0.007779032455087161
2019-06-24,0.015594613313595327
2019-06-25,0.008280241684063293
2019-06-26,0.007030456181651956
2019-06-27,0.009879710596838186
2019-06-28,0.0017382183321179717
2019-07-01,0.003464468821317299
2019-07-02,0.0019232182366797686
2019-07-03,0.013319754478575991
2019-07-04,0.011561465497567733
2019-07-05,0.010903767314209886
2019-07-08,0.004737641076904107
2019-07-09,0.014992713865105534
2019-07-10,0.004463352205856957
2019-07-11,0.004771285871588243
2019-07-12,0.006402646508412473
2019-07-15,0.005752675186036817
2019-07-16,0.007779357231010028
2019-07-17,0.007145145635434082
2019-07-18,0.009020659604092936
2019-07-19,0.01686547577052739
2019-07-22,0.008746739283305383
2019-07-23,0.010446382878541095
2019-07-24,0.00969200348997817
2019-07-25,0.009011410889409328
2019-07-26,0.0064679051811602955
2019-07-29,0.0039930014655199225
2019-07-30,0.0037119304065242084
2019-07-31,-0.0005461896955787483
2019-08-01,0.0037249228563682115
2019-08-02,0.004686449578997375
2019-08-05,-0.00302999911889619
2019-08-06,-0.006136019086764158
2019-08-07,-0.006193419360316768
2019-08-08,-0.011165829053131474
2019-08-09,-0.011863307366658457
2019-08-12,-0.0249899141595401
2019-08-13,-0.026248768594766797
2019-08-14,-0.021605922133273697
2019-08-15,-0.028834786623981624
2019-08-16,-0.026467671498541616
2019-08-19,-0.011918246781915404
2019-08-20,-0.007627104381414836
2019-08-21,-0.014040966329115175
2019-08-22,-0.014274947421722757
2019-08-23,-0.010946713915911937
2019-08-26,-0.017372924232439472
2019-08-27,-0.0057148009413470965
2019-08-28,-0.0015000685096615996
2019-08-29,-0.0010542793775642975
2019-08-30,-0.003263230982972286
2019-09-02,0.0035772505397678326
2019-09-03,-0.002077265474870281
2019-09-04,0.0011389329620461114
2019-09-05,0.0010720449146924597
2019-09-06,0.0015993964489712706
2019-09-09,0.007111860574574871
2019-09-10,0.007428954953542304
2019-09-11,0.014326469242012104
2019-09-12,0.014598392542817976
2019-09-16,0.00758546038918647
2019-09-17,0.0014180070567356004
2019-09-18,0.003828337371454554
2019-09-19,0.00611802494791701
2019-09-20,0.0008741473967701988
2019-09-23,-0.008371990242912181
2019-09-24,-0.004636873990494747
2019-09-25,0.001937705747484436
2019-09-26,0.005501779197502291
2019-09-27,0.0011715577745337602
2019-09-30,0.00538564519177618
2019-10-08,0.0037039246235740578
2019-10-09,0.00046820089067194787
2019-10-10,0.0029278888682390987
2019-10-11,0.006814295752595883
2019-10-14,0.009293885934946122
2019-10-15,0.009058708710906287
2019-10-16,0.01728724923735886
2019-10-17,0.01572301177936547
2019-10-18,0.018464332232002313
2019-10-21,0.01362511866472026
2019-10-22,0.012872946231948191
2019-10-23,0.010981310344712385
2019-10-24,0.01425522168144215
2019-10-25,0.0006458755310800944
2019-10-28,-0.007202084585355686
2019-10-29,-0.0028468788155858737
2019-10-30,-0.0009584138982531906
2019-10-31,-0.0012692725926524004
2019-11-01,-0.008448184841241276
2019-11-04,-0.009575315358755481
2019-11-05,-0.003258421614268491
2019-11-06,-0.002511423011607592
2019-11-07,-0.0034696574618056555
2019-11-08,-0.001038481275089537
2019-11-11,-0.019601822801009985
2019-11-12,-0.0219328537926891
2019-11-13,-0.013215632777836413
2019-11-14,-0.010337290574941014
2019-11-15,-0.0092989491490779
2019-11-18,-0.00967176071277319
2019-11-19,-0.0024957549996088915
2019-11-20,-0.002721769019116388
2019-11-21,-0.00830898794486793
2019-11-22,0.0017065295211126374
2019-11-25,0.013093540336369665
2019-11-26,0.007999511187359379
2019-11-27,0.018501148719833146
2019-11-28,0.01239713996328562
2019-11-29,0.0019735540744805075
2019-12-02,0.00024371209874544247
2019-12-03,-0.0037628567123162565
2019-12-04,-0.00044127810367811104
2019-12-05,-0.006342689323446948
2019-12-06,-0.013306749475823089
2019-12-09,-0.007599817304536724
2019-12-10,-0.012609524830551513
2019-12-11,-0.006303175478543442
2019-12-12,-0.007171333997572055
2019-12-13,0.0011749460017072971
2019-12-16,-0.00553056171605628
2019-12-17,0.009169464431180621
2019-12-18,0.006703970623893291
2019-12-19,0.01399615150978446
2019-12-20,0.022224459510414137
2019-12-23,0.0339256242758383
2019-12-24,0.039529789216523725
2019-12-25,0.03911863867142421
2019-12-26,0.058749069143580857
2019-12-27,0.06600281747963618
2019-12-30,0.0586333239537019
2019-12-31,0.05450479395063879
2020-01-02,0.054458808920172505
2020-01-03,0.05248356130228977
2020-01-06,0.050935009171225204
2020-01-07,0.051651248297147755
2020-01-08,0.06279007590475873
2020-01-09,0.057657186858647916
2020-01-10,0.05551509620057363
2020-01-13,0.05466689941510347
2020-01-14,0.05680359379436309
2020-01-15,0.05514116195366307
2020-01-16,0.053517378644041734
2020-01-17,0.06595377038187047
2020-01-20,0.07546919238222431
2020-01-21,0.05430053695662315
2020-01-22,0.04430813078927825
2020-01-23,0.04277884897401359
2020-02-03,0.023176620485888477
2020-02-04,0.02450508735455257
2020-02-05,0.016134707046823966
2020-02-06,0.014025789607570852
2020-02-07,0.022378066700102332
2020-02-10,0.02845497120302955
2020-02-11,0.01943859086890161
2020-02-12,0.023176878296991422
2020-02-13,0.02723795915892384
2020-02-14,0.044037552529639534
2020-02-17,0.03996694034333291
2020-02-18,0.037432790190365134
2020-02-19,0.043382867616558296
2020-02-20,0.04932267902885272
2020-02-21,0.0326230858649624
2020-02-24,0.020664470899642462
2020-02-25,0.004113308526278836
2020-02-26,0.006967326122222256
2020-02-27,0.010682409785726155
2020-02-28,0.007661705220482401
2020-03-02,0.004259759272459571
2020-03-03,0.0005396064162207781
2020-03-04,0.016001960460366824
2020-03-05,0.019946970526392938
2020-03-06,0.019072134590056994
2020-03-09,0.013678150672795958
2020-03-10,0.008438860082679321
2020-03-11,0.005561651097701452
2020-03-12,-0.01036564018880608
2020-03-13,-0.024217779460240414
2020-03-16,-0.015192913159973304
2020-03-17,-0.016568908355041056
2020-03-18,-0.015778185382016092
2020-03-19,-0.028887022002405366
2020-03-20,-0.015103383401293777
2020-03-23,-0.006020014696399956
2020-03-24,0.016691631285632644
2020-03-25,0.008827584785926521
2020-03-26,0.009490248836614944
2020-03-27,0.01799461456201577
2020-03-30,0.034781523696024136
2020-03-31,0.03341161814993842
2020-04-01,0.026151828379043708
2020-04-02,0.02570632290375105
2020-04-03,0.028795960426716605
2020-04-07,0.02922876987813114
2020-04-08,0.02941063505172564
2020-04-09,0.03224616745454896
2020-04-10,0.034456018740319824
2020-04-13,0.04070009464435255
2020-04-14,0.044621974585117824
2020-04-15,0.02994861261685111
2020-04-16,0.03356693188232978
2020-04-17,0.02793354127356082
2020-04-20,0.026203074300225736
2020-04-21,0.029485480795248254
2020-04-22,0.025596988572456375
2020-04-23,0.026378316799112334
2020-04-24,0.024098837435315684
2020-04-27,0.01515550197165067
2020-04-28,0.008811249603686795
2020-04-29,0.011856628956481024
2020-04-30,0.01218323377266946
2020-05-06,0.00574388821375223
2020-05-07,0.006209913413460246
2020-05-08,0.01059893015499239
2020-05-11,0.009345594350851978
2020-05-12,0.0023555285108614998
2020-05-13,0.005410099419448072
2020-05-14,0.0053749452035060565
2020-05-15,0.007239664097991037
2020-05-18,0.014839244625020526
2020-05-19,0.006719053925571265
2020-05-20,0.008562161931190183
2020-05-21,0.0033012415836067427
2020-05-22,0.007756696280976402
2020-05-25,0.012632992164829937
2020-05-26,0.020080991874090515
2020-05-27,0.0348269748107419
2020-05-28,0.02802895356943129
2020-05-29,0.03247877175180027
2020-06-01,0.017880291600011623
2020-06-02,0.009363425908882443
2020-06-03,0.002793472546733053
2020-06-04,-0.025574515209011023
2020-06-05,-0.007042755255737637
2020-06-08,-0.01361937540905045
2020-06-09,-0.015107841797587257
2020-06-10,-0.012200842966959335
2020-06-11,-0.006493960943876692
2020-06-12,-0.01034563313595821
2020-06-15,-0.0026695359238798344
2020-06-16,-0.012654689560452057
2020-06-17,-0.007777538064726752
2020-06-18,-0.023912527259696434
2020-06-19,-0.02015804965027182
2020-06-22,-0.03620408552576841
2020-06-23,-0.030915971071254697
2020-06-24,-0.0346309284319251
2020-06-29,-0.046269545986292
2020-06-30,-0.04580727038293965
2020-07-01,-0.026346988346181557
2020-07-02,-0.016453331444691605
2020-07-03,-0.007351524661165287
2020-07-06,-0.011472968170614706
2020-07-07,-0.018632771355717538
2020-07-08,-0.016085104157331723
2020-07-09,-0.015260411224404621
2020-07-10,-0.02874883931928946
2020-07-13,-0.02516317577449857
2020-07-14,-0.030565408950825393
2020-07-15,-0.03312814619244997
2020-07-16,-0.026287182706804843
2020-07-17,-0.014799372268485798
2020-07-20,-0.011532278429194048
2020-07-21,-0.009535639632743138
2020-07-22,-0.017268955940375995
2020-07-23,-0.019681967398855877
2020-07-24,-0.012705332447314185
2020-07-27,-0.007610293979302282
2020-07-28,-0.01021040931450289
2020-07-29,-0.020003016406310463
2020-07-30,-0.020340377130813266
2020-07-31,-0.01702607195187312
2020-08-03,-0.025926977874501798
2020-08-04,-0.017543212593561338
2020-08-05,-0.020258231113746798
2020-08-06,-0.024843152106544156
2020-08-07,-0.020410191908920523
2020-08-10,-0.02621758363467619
2020-08-11,-0.024366111792775823
2020-08-12,-0.016808939192272387
2020-08-13,-0.02057479050512026
2020-08-14,-0.019951195282166104
2020-08-17,-0.025311516667520816
2020-08-18,-0.02192470276593608
2020-08-19,-0.017378665634818925
2020-08-20,-0.013237090357610396
2020-08-21,-0.01428205181647684
2020-08-24,-0.012813850453021925
2020-08-25,-0.0082411386901141
2020-08-26,0.004461983504341556
2020-08-27,-0.0027539072514652096
2020-08-28,-0.007977281923350628
2020-08-31,-0.014381783705957857
2020-09-01,-0.010303026878361245
2020-09-02,-0.011069287246662153
2020-09-03,-0.009251397846083961
2020-09-04,-0.00037871583046330745
2020-09-07,0.012668480914757608
2020-09-08,0.01919489062946783
2020-09-09,0.028031360291935408
2020-09-10,0.023080457330740316
2020-09-11,0.014026275500110824
2020-09-14,0.01932463400513682
2020-09-15,0.01154226402465713
2020-09-16,0.020826045589756537
2020-09-17,0.008334850211035024
2020-09-18,0.011872674182500778
2020-09-21,0.016419017025395336
2020-09-22,0.017597192327872865
2020-09-23,0.018712321981632484
2020-09-24,0.017968102316183312
2020-09-25,0.01665670435376048
2020-09-28,0.016036785822393252
2020-09-29,0.00968783397259032
2020-09-30,0.0036281403801246698
2020-10-09,-0.005149165633716136
2020-10-12,-0.006567356669025543
2020-10-13,-0.015225544620241593
2020-10-14,-0.03693243436036483
2020-10-15,-0.033257530518901256
2020-10-16,-0.026110851119552785
2020-10-19,-0.035363192456036835
2020-10-20,-0.04733590673439599
2020-10-21,-0.04349749431103279
2020-10-22,-0.048869623352661117
2020-10-23,-0.03749743807731684
2020-10-26,-0.056930213670682045
2020-10-27,-0.06602325243405438
2020-10-28,-0.0730677679949736
2020-10-29,-0.07594713319571209
2020-10-30,-0.08109063927597936
2020-11-02,-0.08461170933312351
2020-11-03,-0.0656542796082271
2020-11-04,-0.06374290535344851
2020-11-05,-0.04761319571413428
2020-11-06,-0.03772634533949831
2020-11-09,-0.03497225650510295
2020-11-10,-0.023614910442235376
2020-11-11,-0.013777982652464577
2020-11-12,-0.012872143976692575
2020-11-13,-0.01408520139955335
2020-11-16,0.0027853382510180293
2020-11-17,0.01055194853462783
2020-11-18,0.01446700115240018
2020-11-19,0.011181951934718114
2020-11-20,0.006218122753922665
2020-11-23,0.017278718114656193
2020-11-24,0.02837316841331288
2020-11-25,0.02946721237195154
2020-11-26,0.034900380215414
2020-11-27,0.041426450602434405
2020-11-30,0.03235636243371698
2020-12-01,0.02849241664212026
2020-12-02,0.023495197293449902
2020-12-03,0.016218224514163753
2020-12-04,0.017213080863450112
2020-12-07,0.027870845789323563
2020-12-08,0.016204199693998347
2020-12-09,0.03357706716306825
2020-12-10,0.019618992651559072
2020-12-11,0.008267311704107341
2020-12-14,0.01329113923751768
2020-12-15,0.011628265286107012
2020-12-16,0.0026052004185077374
2020-12-17,0.0005061364150339212
2020-12-18,0.0004347779696374371
2020-12-21,-0.01644087785370519
2020-12-22,-0.01075936996347443
2020-12-23,-0.006133568618605895
2020-12-24,-0.0012087589754427586
2020-12-25,0.0007764096572783624
2020-12-28,-0.005569450935645752
2020-12-29,-0.0007959282759360878
2020-12-30,0.004662755419111295
2020-12-31,0.007342283977830204
2021-01-04,-0.0023034605083450304
2021-01-05,-0.012636423080652288
2021-01-06,-0.007244961536993307
2021-01-07,-0.014457935979257215
2021-01-08,-0.00797527364481601
2021-01-11,-0.0012729593542109932
2021-01-12,0.0006985676889771472
2021-01-13,0.006779243981238015
2021-01-14,-0.0003680196931609009
2021-01-15,-0.00490369305081189
2021-01-18,-0.03245095738914435
2021-01-19,-0.01337795144838865
2021-01-20,-0.032445656747651534
2021-01-21,-0.05137587167577691
2021-01-22,-0.05528631691237999
2021-01-25,-0.06449478353070583
2021-01-26,-0.05839855150302781
2021-01-27,-0.05887277310620774
2021-01-28,-0.06911161634315893
2021-01-29,-0.06971644312321112
2021-02-01,-0.09039499694406197
2021-02-02,-0.10780126950903418
2021-02-03,-0.09150727817800935
2021-02-04,-0.10429482286938482
2021-02-05,-0.10106432801810428
2021-02-08,-0.11418430090103059
2021-02-09,-0.11928129917418323
2021-02-10,-0.11339691923181168
2021-02-18,-0.08696809761128764
2021-02-19,-0.08030465256996953
2021-02-22,-0.0647704607285959
2021-02-23,-0.06080008149077293
2021-02-24,-0.05032549553879909
2021-02-25,-0.0357554438845949
2021-02-26,-0.036138066155399336
2021-03-01,-0.03907357066471788
2021-03-02,-0.028695501727743468
2021-03-03,-0.028452508132245924
2021-03-04,-0.011056867651625252
2021-03-05,-0.0067398083662864264
2021-03-08,0.006848439477192169
2021-03-09,0.0034249770502282513
2021-03-10,-0.0028302585134230666
2021-03-11,-0.01268409322419934
2021-03-12,-0.010801371007138863
2021-03-15,0.007389012903297593
2021-03-16,0.007511805454750477
2021-03-17,0.004351761143335749
2021-03-18,-0.009698268364515705
2021-03-19,0.002315241521154178
2021-03-22,0.007308808961175611
2021-03-23,0.014416421851458435
2021-03-24,0.009563193098800469
2021-03-25,0.01749991565960717
2021-03-26,0.019244085401263506
2021-03-29,0.027273997413387388
2021-03-30,0.026877185236924853
2021-03-31,0.02978137053054105
2021-04-01,0.029695952717614563
2021-04-02,0.016083740833944357
2021-04-06,0.01361789082529913
2021-04-07,0.01988957846833503
2021-04-08,0.015909455261633374
2021-04-09,0.021921394082879995
2021-04-12,0.02793551141386659
2021-04-13,0.018196750955611175
2021-04-14,0.022165964281427065
2021-04-15,0.021429191715613527
2021-04-16,0.03720917725425834
2021-04-19,0.03632743267907265
2021-04-20,0.031187776870589042
2021-04-21,0.024331991485688348
2021-04-22,0.02477351207846453
2021-04-23,0.011823117685016624
2021-04-26,0.01815892765386913
2021-04-27,0.0134638344259615
2021-04-28,0.01608780371127698
2021-04-29,0.019656718738360564
2021-04-30,0.008270455560770953
2021-05-06,0.010492747618919152
2021-05-07,0.02806595237680311
2021-05-10,0.022387624786719677
2021-05-11,0.008249719807029127
2021-05-12,0.007602703208608376
2021-05-13,0.012992653672158447
2021-05-14,0.007927407712765587
2021-05-17,-0.0040614261713577925
2021-05-18,-0.002927537227156062
2021-05-19,0.005109348176570912
2021-05-20,0.010331582250379173
2021-05-21,0.01724288695182504
2021-05-24,0.012073997982401092
2021-05-25,0.012287742814390407
2021-05-26,0.011464868584511331
2021-05-27,0.01605642616076903
2021-05-28,0.016588087647389754
2021-05-31,0.011761319784320006
2021-06-01,0.020181784084317683
2021-06-02,0.029360402780531165
2021-06-03,0.018737593027764295
2021-06-04,0.022980086739610134
2021-06-07,0.01829597072380846
2021-06-08,0.03549466933274405
2021-06-09,0.0416817290721756
2021-06-10,0.02962877326669249
2021-06-11,0.034662684499578336
2021-06-15,0.02764080799292637
2021-06-16,0.0476356138117533
2021-06-17,0.041298824595615145
2021-06-18,0.03108391344501153
2021-06-21,0.032284332430061756
2021-06-22,0.04136457145175116
2021-06-23,0.051313387598799845
2021-06-24,0.049818779117238504
2021-06-25,0.044449027952819464
2021-06-28,0.04173182885344732
2021-06-29,0.0506040577262514
2021-06-30,0.04642728493320605
2021-07-01,0.05720392792843483
2021-07-02,0.06317082095703568
2021-07-05,0.048435678089267076
2021-07-06,0.05081989060162347
2021-07-07,0.046625406453999846
2021-07-08,0.04151642113862783
2021-07-09,0.04089912027176215
2021-07-12,0.027927549503463114
2021-07-13,0.033326125142061104
2021-07-14,0.028104493996788514
2021-07-15,0.025477096728991244
2021-07-16,0.02989847306654615
2021-07-19,0.0201016857602446
2021-07-20,0.005845097162317386
2021-07-21,-0.0024296916587915364
2021-07-22,0.011502989495945203
2021-07-23,0.007933602264355043
2021-07-26,0.002006730853940396
2021-07-27,0.005846475491668047
2021-07-28,0.0017559871904936006
2021-07-29,-0.015499972610464794
2021-07-30,-0.013038653530061572
2021-08-02,-0.00434575658373066
2021-08-03,-0.01086335417338793
2021-08-04,-0.03976296907618373
2021-08-05,-0.04609034292452619
2021-08-06,-0.05279408752278859
2021-08-09,-0.030665977035792855
2021-08-10,-0.022594914194928695
2021-08-11,-0.03193852906405986
2021-08-12,-0.024837587102860086
2021-08-13,-0.01899647940082648
2021-08-16,-0.009958005194787602
2021-08-17,0.0010399302919932851
2021-08-18,0.002332017709478766
2021-08-19,-0.02023206263753551
2021-08-20,-0.01786133295867176
2021-08-23,-0.02142048382652807
2021-08-24,-0.030979730278215045
2021-08-25,-0.030465656330952898
2021-08-26,-0.03658323277421256
2021-08-27,-0.04113210752065003
2021-08-30,-0.043171516624334286
2021-08-31,-0.02779664323850068
2021-09-01,-0.016548615162629374
2021-09-02,-0.017598131642812393
2021-09-03,-0.0072943759463879425
2021-09-06,-0.003944544754863982
2021-09-07,-0.005207314517093529
2021-09-08,0.007517445595857836
2021-09-09,-0.0028398817803436845
2021-09-10,-0.008432837796192617
2021-09-13,-0.007397088395941727
2021-09-14,-0.01503591183606722
2021-09-15,-0.024089001582981297
2021-09-16,-0.009215014167051144
2021-09-17,-0.0006773038100828218
2021-09-22,-0.008316462097877288
2021-09-23,-0.009422464517982555
2021-09-24,-0.0076539897672144004
2021-09-27,-0.0012378968312471601
2021-09-28,-0.0030129279775852526
2021-09-29,-0.002630063926475853
2021-09-30,-0.008302115158074714
2021-10-08,-0.010804672613354488
2021-10-11,0.004439703058665221
2021-10-12,0.0047014555163004
2021-10-13,0.0005564387249289279
2021-10-14,-0.00612342315966991
2021-10-15,-0.012664820269368106
2021-10-18,-0.028636014658909303
2021-10-19,-0.028573379978225396
2021-10-20,-0.027046080500120855
2021-10-21,-0.022149143016452065
2021-10-22,-0.010454353969608055
2021-10-25,-0.010987594550889462
2021-10-26,-0.011865129743442277
2021-10-27,-0.013314840889516861
2021-10-28,0.0014056277447181131
2021-10-29,0.00862841047537291
2021-11-01,0.016826145084220277
2021-11-02,0.02430744003730864
2021-11-03,0.01803971549266588
2021-11-04,0.023253046135893643
2021-11-05,0.03101796433171339
2021-11-08,0.022772496140206596
2021-11-09,0.006544912348922457
2021-11-10,0.015561372797188467
2021-11-11,0.01148591784334091
2021-11-12,0.019443117959467654
2021-11-15,0.027631289451046814
2021-11-16,0.03831130113521893
2021-11-17,0.03609434724761413
2021-11-18,0.026593111090488543
2021-11-19,0.022892131547566114
2021-11-22,0.009725095032767108
2021-11-23,0.0065141117686683715
2021-11-24,0.009022990233955254
2021-11-25,0.011899059456680593
2021-11-26,-0.007236231231037433
2021-11-29,-0.014951801790777862
2021-11-30,-0.01700537368722737
2021-12-01,-0.009210460033658217
2021-12-02,-0.005794919550689432
2021-12-03,-0.01306646533172415
2021-12-06,-0.021234159564472083
2021-12-07,-0.015980154300679762
2021-12-08,-0.007357572393875328
2021-12-09,-0.006296651147807482
2021-12-10,-0.013565997528530847
2021-12-13,-0.00929918152845486
2021-12-14,-0.01574079710167616
2021-12-15,-0.01917898996019373
2021-12-16,-0.01861787926619513
2021-12-17,-0.022295465559530978
2021-12-20,-0.024493658191568714
2021-12-21,-0.021406103965941406
2021-12-22,-0.02800859336973497
2021-12-23,-0.026373609778047855
2021-12-24,-0.014651289004845905
2021-12-27,-0.008827935483041671
2021-12-28,-0.015106293577144748
2021-12-29,-0.015578684936228458
2021-12-30,-0.022993955469831996
2021-12-31,-0.016501402424035264
2022-01-04,-0.019247804983239594
2022-01-05,-0.01923142840344079
2022-01-06,-0.02981226116116007
2022-01-07,-0.016042582095583846
2022-01-10,-0.007696808079221573
2022-01-11,0.001332619695044751
2022-01-12,-0.0021710006542217802
2022-01-13,0.00261847561117794
2022-01-14,-0.001511551908664567
2022-01-17,-0.0025890228925230865
2022-01-18,0.006812923401737746
2022-01-19,0.01126364636319796
2022-01-20,0.032798630912493285
2022-01-21,0.03190560829745697
2022-01-24,0.03272253565200115
2022-01-25,0.024615476663347128
2022-01-26,0.02520036482569378
2022-01-27,0.016565245775959057
2022-01-28,0.02501491051535301
2022-02-07,0.04274415226822881
2022-02-08,0.05503519549241045
2022-02-09,0.05854712966407081
2022-02-10,0.06233023435166226
2022-02-11,0.06821620212277513
2022-02-14,0.06807896988075593
2022-02-15,0.06980446373520391
2022-02-16,0.06173030178999655
2022-02-17,0.043582136112148936
2022-02-18,0.039403843075750865
2022-02-21,0.04225036451454916
2022-02-22,0.030541469593061824
2022-02-23,0.019382251151919543
2022-02-24,0.014912315510141605
2022-02-25,0.02762598357363512
2022-02-28,0.021286345182892193
2022-03-01,0.01963251390662521
2022-03-02,0.014330856398625677
2022-03-03,0.017058751223278178
2022-03-04,0.01056202528829181
2022-03-07,-0.008833952136423512
2022-03-08,-0.012084563261192132
2022-03-09,-0.017269220711785126
2022-03-10,-0.002463544691706558
2022-03-11,-0.009370729005697347
2022-03-14,-0.021646552465322745
2022-03-15,-0.046639007288635084
2022-03-16,-0.018631669894125666
2022-03-17,0.009624370895626327
2022-03-18,0.015604323799505219
2022-03-21,0.004056864647403374
2022-03-22,0.010834535442173068
2022-03-23,0.017777925172100542
2022-03-24,0.02082226264179257
2022-03-25,0.009197696471022074
2022-03-28,0.00911409243737829
2022-03-29,0.012567743280510094
2022-03-30,0.005477996098267712
2022-03-31,0.014466902550249523
2022-04-01,0.024422636519632987
2022-04-06,0.028774655266661578
2022-04-07,0.020072308895479285
2022-04-08,0.012352895362454173
2022-04-11,0.0009258370160822385
2022-04-12,0.007226688114681412
2022-04-13,0.004326087795791363
2022-04-14,0.006354645251782344
2022-04-15,0.003923825311060426
2022-04-18,0.008336408861710897
2022-04-19,-0.002140893294534499
2022-04-20,0.0020142846996991995
2022-04-21,0.009130343674097959
2022-04-22,0.004674420426425479
2022-04-25,-0.0019275465373536776
2022-04-26,0.0016675348984069999
2022-04-27,-0.004462341081924795
2022-04-28,-0.008174425580089274
2022-04-29,0.012702025204061405
2022-05-05,0.013385313598740803
2022-05-06,0.004027995342551827
2022-05-09,-0.008134891020355917
2022-05-10,-0.026167436265317284
2022-05-11,-0.015760830518674836
2022-05-12,-0.019576982370052703
2022-05-13,0.0001547323472609885
2022-05-16,-0.0002806232404164652
2022-05-17,0.004750066272487648
2022-05-18,0.004873968266344293
2022-05-19,-0.007655904311390835
2022-05-20,-0.0034077900913957807
2022-05-23,-0.016479029050261357
2022-05-24,-0.020087612964092193
2022-05-25,-0.015376198017646794
2022-05-26,-0.026686762551225804
2022-05-27,-0.0220297863109873
2022-05-30,-0.014187774401679662
2022-05-31,-0.0056006158755999985
2022-06-01,-0.007686109342398412
2022-06-02,-0.010354903115430483
2022-06-06,-0.015162067705323544
2022-06-07,-0.0049902267280022145
2022-06-08,0.010303169338439812
2022-06-09,0.018438831875160794
2022-06-10,0.015368340116822851
2022-06-13,0.004626097553555454
2022-06-14,0.005082884538576471
2022-06-15,0.01466692197323
2022-06-16,0.01271394455462651
2022-06-17,0.021890620837398213
2022-06-20,0.019427286862294106
2022-06-21,0.0217205534614173
2022-06-22,0.018087473351910056
2022-06-23,0.008914924775184924
2022-06-24,0.012319766123532956
2022-06-27,0.01493248769101287
2022-06-28,0.009805630611883033
2022-06-29,0.01785940793891791
2022-06-30,0.015421334561982112
2022-07-01,0.014522535897208956
2022-07-04,0.020310293602632243
2022-07-05,0.017186768716483176
2022-07-06,0.011208630403665848
2022-07-07,1.884037187680626e-05
2022-07-08,-0.0003299970909821197
2022-07-11,0.003615350282561743
2022-07-12,0.009521657389272804
2022-07-13,0.007624140604182394
2022-07-14,-0.005801537734045114
2022-07-15,-0.018673681741095367
2022-07-18,-0.002314091946784281
2022-07-19,0.009518075119797399
2022-07-20,0.011308339315410493
2022-07-21,0.023211951000397288
2022-07-22,0.012245741301305854
2022-07-25,0.018107558500194
2022-07-26,0.025236626618056496
2022-07-27,0.013702381022687324
2022-07-28,0.0011121919132768693
2022-07-29,-0.004145462073544848
2022-08-01,-0.008860204249943203
2022-08-02,-0.019930944039936022
2022-08-03,-0.03186014076919472
2022-08-04,-0.015279008249421664
2022-08-05,-0.011377828291628905
2022-08-08,-0.009763462649348537
2022-08-09,-0.013256831638598619
2022-08-10,-0.010933489210220674
2022-08-11,-0.0073938464572188
2022-08-12,-0.008386695380874783
2022-08-15,-0.015249415035007426
2022-08-16,-0.01957608420546915
2022-08-17,-0.02517715706359063
2022-08-18,-0.027718721695302886
2022-08-19,-0.018634083552985882
2022-08-22,-0.02261917462908712
2022-08-23,-0.022225507864891927
2022-08-24,-0.013644851315417844
2022-08-25,-0.0016825539468949616
2022-08-26,0.002433898689946229
2022-08-29,-0.0023887831879326332
2022-08-30,-0.0034475030442750465
2022-08-31,0.014412729882349505
2022-09-01,0.002254505766196041
2022-09-02,0.005664734966263449
2022-09-05,0.005739831470990886
2022-09-06,0.007116280369098837
2022-09-07,-0.0018850683941934177
2022-09-08,-0.006241216963421135
2022-09-09,-0.007757412575092271
2022-09-13,-0.0051839205791491885
2022-09-14,-0.002578424821574825
2022-09-15,0.013652470457346244
2022-09-16,0.009835714204464
2022-09-19,0.02564846144091698
2022-09-20,0.02115819237743053
2022-09-21,0.013832869055613928
2022-09-22,-0.00233351424519819
2022-09-23,0.004516274629622542
2022-09-26,0.0008628704208254387
2022-09-27,3.512719889231519e-05
2022-09-28,-0.0007970038071855499
2022-09-29,-0.01620904405233288
2022-09-30,-0.01895619240033174
2022-10-10,-0.029811006276972134
2022-10-11,-0.032527272869529784
2022-10-12,-0.015927207654063896
2022-10-13,-0.014557029101223185
2022-10-14,-0.02603211091902798
2022-10-17,-0.03772511668084705
2022-10-18,-0.04425503844187501
2022-10-19,-0.0467610466845093
2022-10-20,-0.052331887039976224
2022-10-21,-0.05226167178557704
2022-10-24,-0.07009001597494041
2022-10-25,-0.06272176501107032
2022-10-26,-0.0626622575238824
2022-10-27,-0.04581063138785464
2022-10-28,-0.05637502293624731
2022-10-31,-0.05340891579615996
2022-11-01,-0.044753944459075476
2022-11-02,-0.048024743645317905
2022-11-03,-0.04953684368777844
2022-11-04,-0.038087109215551
2022-11-07,-0.05146121120504945
2022-11-08,-0.045027048520798536
2022-11-09,-0.040134524519432765
2022-11-10,-0.04372771849578515
2022-11-11,-0.036176569091766954
2022-11-14,-0.024422539686292995
2022-11-15,-0.017588400657514915
2022-11-16,-0.016806092081497085
2022-11-17,-0.00880496564540617
2022-11-18,-0.009117526966818727
2022-11-21,-0.006846321361835077
2022-11-22,0.0029437067314909172
2022-11-23,0.0013969766826659649
2022-11-24,0.001161191029973539
2022-11-25,0.004102151888696101
2022-11-28,-0.0012770036593709125
2022-11-29,-0.0009093132849392999
2022-11-30,-0.00045906037624476436
2022-12-01,0.006076551947820356
2022-12-02,0.008842374708865891
2022-12-05,0.007067546077560332
2022-12-06,0.012674051405968957
2022-12-07,0.01244049606289939
2022-12-08,0.007740586879721467
2022-12-09,0.003832523915418402
2022-12-12,0.0035575086226642075
2022-12-13,0.007154427013827222
2022-12-14,-0.0019100072262929592
2022-12-15,0.008406104885069076
2022-12-16,-0.007472577805683816
2022-12-19,-0.011652499039278688
2022-12-20,-0.011468293975844791
2022-12-21,-0.017360982546399006
2022-12-22,-0.022984041560013976
2022-12-23,-0.027011339833757572
2022-12-26,-0.02001828359825697
2022-12-27,-0.023443954645782625
2022-12-28,-0.028564447703730192
2022-12-29,-0.029583073937023453
2022-12-30,-0.029218818831133295
2023-01-03,-0.025013066987259913
2023-01-04,-0.028800669170633775
2023-01-05,-0.026030242642670915
2023-01-06,-0.02417672889534062
2023-01-09,-0.028895229623572913
2023-01-10,-0.022460905983988397
2023-01-11,-0.026349685031598104
2023-01-12,-0.020909249507211618
2023-01-13,-0.0198751580030019
2023-01-16,-0.016689525301941295
2023-01-17,-0.021283504795950797
2023-01-18,-0.019416108834707232
2023-01-19,-0.015113729900586428
2023-01-20,-0.015464643545756386
2023-01-30,-0.01413113231805442
2023-01-31,-0.01649350893530263
2023-02-01,-0.01887344387810884
2023-02-02,-0.023164142085004644
2023-02-03,-0.01876078632922161
2023-02-06,-0.017377731111838962
2023-02-07,-0.01669026744396747
2023-02-08,-0.02174721379219046
2023-02-09,-0.026240540916724772
2023-02-10,-0.02065601182765229
2023-02-13,-0.02358389828718762
2023-02-14,-0.019270655285992092
2023-02-15,-0.021573732843947445
2023-02-16,-0.01628400285815291
2023-02-17,-0.012412077478864234
2023-02-20,-0.005915284581619898
2023-02-21,0.005431913880729958
2023-02-22,0.004479399886995831
2023-02-23,0.012742479749811297
2023-02-24,0.02106761980218607
2023-02-27,0.026691904730797224
2023-02-28,0.020238345051796044
2023-03-01,0.024843508312499155
2023-03-02,0.019116822487700656
2023-03-03,0.028691163150001947
2023-03-06,0.03815439756299317
2023-03-07,0.043533757838857726
2023-03-08,0.044065303561865984
2023-03-09,0.046982390067121224
2023-03-10,0.032822174306259715
2023-03-13,0.02756940914088063
2023-03-14,0.03433082977960604
2023-03-15,0.02867446038872428
2023-03-16,0.02667575429782021
2023-03-17,0.013908027238138249
2023-03-20,0.01686449005236182
2023-03-21,0.023956463843928525
2023-03-22,0.03213270783380312
2023-03-23,0.020439508887141876
2023-03-24,0.021634220236176987
2023-03-27,0.029729161302731462
2023-03-28,0.020909924290376337
2023-03-29,0.015011979070847777
2023-03-30,0.0269619875534819
2023-03-31,0.015455594915343637
2023-04-03,0.0015429425752020928
2023-04-04,0.003490328353445527
2023-04-06,-0.003428875611474848
2023-04-07,-0.008364135351214046
2023-04-10,0.0014209484306518042
2023-04-11,-0.005088466941097082
2023-04-12,-0.02422761725021818
2023-04-13,-0.023904549813150284
2023-04-14,-0.02069084994587202
2023-04-17,-0.0020241491889055607
2023-04-18,-0.008009613550104204
2023-04-19,-0.01715181013984299
2023-04-20,-0.035552571626956825
2023-04-21,-0.023959117057710512
2023-04-24,-0.02817836279846813
2023-04-25,-0.024857992500830785
2023-04-26,-0.00653778431683805
2023-04-27,0.016040056959234578
2023-04-28,0.011973399016293629
2023-05-04,0.01917403231830879
2023-05-05,0.015500888946509755
2023-05-08,0.010763578459024516
2023-05-09,0.0035056638836470956
2023-05-10,0.011006271701960665
2023-05-11,0.005603359120815835
2023-05-12,0.019030800187957855
2023-05-15,0.022187326631291793
2023-05-16,0.03375135317488589
2023-05-17,0.03541665608963116
2023-05-18,0.007495423673103551
2023-05-19,0.016583175046674378
2023-05-22,0.03891785361177447
2023-05-23,0.05066059770137129
2023-05-24,0.03844401878451582
2023-05-25,0.021346199005594618
2023-05-26,0.010600178518003538
2023-05-29,-0.0008577602961504418
2023-05-30,-0.005014404597316951
2023-05-31,-0.015704231564544868
2023-06-01,-0.02467250375432754
2023-06-02,-0.00801164962354992
2023-06-05,-0.013139623290646128
2023-06-06,-0.010567205604669252
2023-06-07,-0.010680933856249415
2023-06-08,-0.012458485014820133
2023-06-09,-0.01993121959021764
2023-06-12,-0.021127419121885614
2023-06-13,-0.025880809887436802
2023-06-14,-0.023026975417090707
2023-06-15,-0.011714605576428578
2023-06-16,-0.018529581240254965
2023-06-19,-0.020169138004496535
2023-06-20,-0.03357028609348482
2023-06-21,-0.03499600774270464
2023-06-26,-0.02525785595797439
2023-06-27,-0.024800758647311842
2023-06-28,-0.024962113527898108
2023-06-29,-0.036496006508905755
2023-06-30,-0.041821789808765567
2023-07-03,-0.0337255596228148
2023-07-04,-0.028303154638077165
2023-07-05,-0.02291538935532035
2023-07-06,-0.03148286385275143
2023-07-07,-0.023239484848986063
2023-07-10,-0.01524899461747532
2023-07-11,-0.016863244741839162
2023-07-12,-0.014128049868641515
2023-07-13,-0.014803489119208231
2023-07-14,-0.022474954769411876
2023-07-17,-0.017405269744274948
2023-07-18,-0.016065866535116918
2023-07-19,-0.02254839968367424
2023-07-20,-0.012631784256146784
2023-07-21,-0.010497867892901195
2023-07-24,-0.009460864700550853
2023-07-25,0.005201213855784877
2023-07-26,0.008585455571122537
2023-07-27,0.009406050335519882
2023-07-28,0.005827200990142445
2023-07-31,0.004703176030702562
2023-08-01,0.00578375088386375
2023-08-02,0.0055540222138257545
2023-08-03,0.008936699208826428
2023-08-04,0.005703345467540269
2023-08-07,0.005237649201210313
2023-08-08,0.0061995149828990015
2023-08-09,0.00916944248426119
2023-08-10,0.0126311100907835
2023-08-11,0.011009262161551903
2023-08-14,0.009182073919419262
2023-08-15,0.00501573787202432
2023-08-16,0.007719874511261028
2023-08-17,0.009117064502885429
2023-08-18,0.004968527380947406
2023-08-21,0.0027456961280961736
2023-08-22,-0.0061348341431848065
2023-08-23,-0.005091747940403202
2023-08-24,0.0016977293682336539
2023-08-25,0.006206353910446412
2023-08-28,-0.0023715742692223506
2023-08-29,0.004151120649705083
2023-08-30,-0.001590120649789882
2023-08-31,-0.00018413591929474296
2023-09-01,0.001207509861290968
2023-09-04,0.004296364536014438
2023-09-05,0.003540548073370609
2023-09-06,-0.007088235515808335
2023-09-07,-0.0035835917477223204
2023-09-08,-0.003860643440144921
2023-09-11,-0.00403142213627522
2023-09-12,-0.00015203952357804862
2023-09-13,0.00817310343536956
2023-09-14,0.006849820891904515
2023-09-15,0.009598905173237526
2023-09-18,0.012120102156286741
2023-09-19,0.013364794173440907
2023-09-20,0.014434769413409307
2023-09-21,0.00038938247733233053
2023-09-22,-0.003564162692263423
2023-09-25,0.0010872263141813304
2023-09-26,-0.004285971088805362
2023-09-27,-0.000278698867767338
2023-09-28,-0.004848188186818956
2023-10-09,-0.006195660890201316
2023-10-10,-0.0028946829426949056
2023-10-11,0.003480707074780537
2023-10-12,0.005217557769243687
2023-10-13,0.004272728503120634
2023-10-16,0.01031546213246844
2023-10-17,0.012927319037584793
2023-10-18,0.010544970889378164
2023-10-19,0.0034733424324109967
2023-10-20,0.007682414701714189
2023-10-23,0.0052241361933699285
2023-10-24,-0.00014137658734616337
2023-10-25,0.0014592896352866383
2023-10-26,0.00037439899042708905
2023-10-27,0.0037921205555849933
2023-10-30,0.005486879808594618
2023-10-31,0.005124501623098408
2023-11-01,0.008699749374601683
2023-11-02,0.006380260554826591
2023-11-03,0.008383983885186831
2023-11-06,0.0042513045088325326
2023-11-07,0.0024141732824337764
2023-11-08,-0.001275332217573262
2023-11-09,0.0028142813805869457
2023-11-10,0.004835161695667618
2023-11-13,0.005748825905484759
2023-11-14,0.0005682010186648968
2023-11-15,0.004877450605628983
2023-11-16,0.007817792260569584
2023-11-17,0.0045592657932821135
2023-11-20,0.003587400284236722
2023-11-21,0.010575078084032422
2023-11-22,0.007187283390195219
2023-11-23,0.006384909083669864
2023-11-24,0.003964290335906069
2023-11-27,-0.004897811256280124
2023-11-28,-0.009508122834922347
2023-11-29,-0.009095053671499077
2023-11-30,-0.0065012869291628285
2023-12-01,-0.010438828295226339
2023-12-04,-0.013449731509388463
2023-12-05,-0.01654062265620649
2023-12-06,-0.0169482920286519
2023-12-07,-0.021391525675756116
2023-12-08,-0.025398835531899054
2023-12-11,-0.022974069208932406
2023-12-12,-0.024102900239588637
2023-12-13,-0.02202165789752518
2023-12-14,-0.02597030162208179
2023-12-15,-0.025027891201878524
2023-12-18,-0.023412759136459335
2023-12-19,-0.025650938609235986
2023-12-20,-0.02021567159588647
2023-12-21,-0.015466970437372933
2023-12-22,-0.01518428555305068
2023-12-25,-0.009462491717391795
2023-12-26,-0.008726512837174013
2023-12-27,-0.011746108834302839
2023-12-28,-0.020328040471231712
2023-12-29,-0.023435375622127788
2024-01-02,-0.018712088504107507
2024-01-03,-0.019973024945952947
2024-01-04,-0.013727964935380782
2024-01-05,-0.013968207495028764
2024-01-08,-0.02534840749006214
2024-01-09,-0.025139984322098678
2024-01-10,-0.02307383525383315
2024-01-11,-0.01620897995688206
2024-01-12,-0.007642301332715823
2024-01-15,-0.010385182721979606
2024-01-16,-0.019795894927710955
2024-01-17,-0.022222009813849454
2024-01-18,-0.0213986281056926
2024-01-19,-0.017476852613339436
2024-01-22,-0.012377166450959973
2024-01-23,-0.013052057154541677
2024-01-24,-0.004119629020100525
2024-01-25,-5.731158655427476e-05
2024-01-26,-0.0034238913045551503
2024-01-29,0.002079145301940352
2024-01-30,-0.003818963499647665
2024-01-31,-0.0005440555410581027
2024-02-01,0.007676838445628734
2024-02-02,-0.003986481790279245
2024-02-05,0.008758154419467146
2024-02-06,0.017419199896698892
2024-02-07,0.009849966062329102
2024-02-08,0.0010985257789418307
2024-02-19,-0.00023178689746229664
2024-02-20,0.00014203847356949323
2024-02-21,0.012284398788887062
2024-02-22,0.0015043712387634856
2024-02-23,0.003229204319312201
2024-02-26,-0.0005248180887028747
2024-02-27,-0.017323198481928644
2024-02-28,-0.008874912335739667
2024-02-29,-0.009727887621161552
2024-03-01,-0.01688707484885799
2024-03-04,-0.018753235986744738
2024-03-05,-0.027775942745292395
2024-03-06,-0.024804598133111908
2024-03-07,-0.024463473787506705
2024-03-08,-0.030606345210718568
2024-03-11,-0.032505255307950676
2024-03-12,-0.016659571733273672
2024-03-13,-0.014213398028628647
2024-03-14,-0.012487661263934274
2024-03-15,-0.023011856426881354
2024-03-18,-0.011838141711783323
2024-03-19,-0.015365626767200252
2024-03-20,-0.01644577483651992
2024-03-21,-0.021449806544700523
2024-03-22,-0.030043004948743623
2024-03-25,-0.01901188986106976
2024-03-26,-0.01471746882442215
2024-03-27,-0.009106804412416335
2024-03-28,-0.015035788235389997
2024-03-29,-0.016510288708790545
2024-04-01,-0.031338551599295335
2024-04-02,-0.024045696424358432
2024-04-03,-0.0238135729857522
2024-04-08,-0.02411890635550759
2024-04-09,-0.029501546662250265
2024-04-10,-0.030289579048910272
2024-04-11,-0.033127744137650766
2024-04-12,-0.04064506020807326
2024-04-15,-0.0419893973822825
2024-04-16,-0.039957374331607044
2024-04-17,-0.04228385384267648
2024-04-18,-0.03793084309033162
2024-04-19,-0.04030688803251688
2024-04-22,-0.026422400589058363
2024-04-23,-0.013807367665370485
2024-04-24,-0.013366060078580773
2024-04-25,-0.00994621865044568
2024-04-26,-0.0031582063761985014
2024-04-29,-0.001987826464565974
2024-04-30,0.0010007698487639431
2024-05-06,0.007120748349137569
2024-05-07,0.002689152337274585
2024-05-08,0.0014096309660794164
2024-05-09,0.003123853007422992
2024-05-10,0.009241066622029972
2024-05-13,0.013605616806579166
2024-05-14,0.018367974691601466
2024-05-15,0.013721654529220457
2024-05-16,0.01945951975206949
2024-05-17,0.013796199376918627
2024-05-20,0.009338223698042873
2024-05-21,0.004807102636488383
2024-05-22,0.01058929064857899
2024-05-23,0.011148580893390162
2024-05-24,0.005445861000442306
2024-05-27,0.005381740149346011
2024-05-28,0.0029790123122558493
2024-05-29,0.0012580147981990017
2024-05-30,0.010369487367700173
2024-05-31,0.01739316949771709
2024-06-03,0.018968122869458877
2024-06-04,0.017387692560598737
2024-06-05,0.0203418215136426
2024-06-06,0.022029647622348103
2024-06-07,0.021120012341188876
2024-06-11,0.02566599916670849
2024-06-12,0.01964058882511039
2024-06-13,0.019709244333705418
2024-06-14,0.011330834772010237
2024-06-17,0.01817807752989587
2024-06-18,0.019145048576874536
2024-06-19,0.009416150952211613
2024-06-20,0.003125699624816488
2024-06-21,-0.0005760593961159979
2024-06-24,-0.0010595532423200065
2024-06-25,0.004863753125313338
2024-06-26,0.007858713636069294
2024-06-27,-0.0024599518716345026
2024-06-28,-0.007653380187451129
2024-07-01,-0.007991094760561947
2024-07-02,-0.005227198768250577
2024-07-03,-0.00703268948392269
2024-07-04,-0.00258893338691857
2024-07-05,-0.0015024882576611977
2024-07-08,-0.021204054991549738
2024-07-09,-0.025539023350950693
2024-07-10,-0.025086433830736624
2024-07-11,-0.01999631550724975
2024-07-12,-0.010248822218420314
2024-07-15,-0.016100555874271172
2024-07-16,-0.015605312353317025
2024-07-17,-0.0017234437806018868
2024-07-18,0.0015371441568681685
2024-07-19,0.006025798232833272
2024-07-22,0.011363928118493072
2024-07-23,0.006206362933310814
2024-07-24,0.005282766032556955
2024-07-25,0.012293043516285303
2024-07-26,0.012599908654069427
2024-07-29,0.004186991040322181
2024-07-30,0.0017566396646132645
2024-07-31,0.011197389487133023
2024-08-01,-0.0011011734146033972
2024-08-02,0.0008529817941654496
2024-08-05,0.02840073778470039
2024-08-06,0.021633510887810025
2024-08-07,0.00874696718586054
2024-08-08,0.011938571601730058
2024-08-09,0.008253672025648376
2024-08-12,0.005591128215527673
2024-08-13,0.00223124266201042
2024-08-14,-0.005344044564075133
2024-08-15,-0.0037344659935357218
2024-08-16,-0.0012094344310970423
2024-08-19,0.0017524439872140599
2024-08-20,-0.00806495938359725
2024-08-21,-0.0070836109359301395
2024-08-22,-0.006266743413921715
2024-08-23,-0.01707250224311373
2024-08-26,-0.021036295472616564
2024-08-27,-0.03406277486381593
2024-08-28,-0.062254189795106565
2024-08-29,-0.08755967618284613
2024-08-30,-0.10983098345127082
2024-09-02,-0.08998301939585882
2024-09-03,-0.07950474956498438
2024-09-04,-0.05963596617123715
2024-09-05,-0.05888903160165246
2024-09-06,-0.04794152937235255
2024-09-09,-0.03843120249437951
2024-09-10,-0.03286573543981863
2024-09-11,-0.04845978976924434
2024-09-12,-0.05095933821087581
2024-09-13,-0.05073337714070006
2024-09-18,-0.05446408753905471
2024-09-19,-0.04815693362987858
2024-09-20,-0.05391380327346332
2024-09-23,-0.05894140565777295
2024-09-24,-0.04537901960636875
2024-09-25,-0.03507363944412284
2024-09-26,-0.027459787312557493
2024-09-27,-0.007051898438944257
2024-09-30,0.004276710753536057
2024-10-08,-0.00040076586272280723
2024-10-09,0.00853227962362803
2024-10-10,0.0205330299148226
2024-10-11,0.013904758484166849
2024-10-14,0.010572517061908114
2024-10-15,0.006462368377808933
2024-10-16,0.008190108979097527
2024-10-17,0.007662395398129393
2024-10-18,-0.0005950418862549958
2024-10-21,-0.001411299139606001
2024-10-22,-0.0009019517945222169
2024-10-23,0.0024999958866681396
2024-10-24,0.000970863116018867
2024-10-25,0.0006683816474694522
2024-10-28,-0.0014923269578725196
2024-10-29,-0.0014731471873011357
2024-10-30,-0.0011399810093892827
2024-10-31,-0.009966313860447343
2024-11-01,0.0030337839909273037
2024-11-04,0.00022292927006835501
2024-11-05,-0.013377148100239513
2024-11-06,-0.00976614565755505
2024-11-07,-0.012645324177360178
2024-11-08,-0.00878714933843152
2024-11-11,-0.025506132077965607
2024-11-12,-0.025435343626840523
2024-11-13,-0.03153103372583742
2024-11-14,-0.02743820676711035
2024-11-15,-0.012506110700265114
2024-11-18,-0.006387731261433839
2024-11-19,-0.01995902827703072
2024-11-20,-0.016001884453077306
2024-11-21,-0.0065375022679644065
2024-11-22,0.011443143506306656
2024-11-25,0.005166109761736721
2024-11-26,0.011103058908710394
2024-11-27,-0.002340277932427557
2024-11-28,0.011435586058784836
2024-11-29,-0.001282480262317521
2024-12-02,0.0013510638883697775
2024-12-03,-0.002432004446536417
2024-12-04,-0.011499789750516482
2024-12-05,-0.03336662869886037
2024-12-06,-0.03560631034055209
2024-12-09,-0.014045362410273689
2024-12-10,-0.01529802624004293
2024-12-11,-0.016554664909189894
2024-12-12,-0.018080738545391453
2024-12-13,-0.015468889649143135
2024-12-16,-0.003367331425074213
2024-12-17,-0.0024417027892595956
2024-12-18,-0.008003708204636011
2024-12-19,-0.014320833011873011
2024-12-20,-0.01843354426000504
2024-12-23,-0.0056420925163881246
2024-12-24,0.0056297485167744535
2024-12-25,0.002287573700637948
2024-12-26,-2.3051857487361993e-05
2024-12-27,-0.01002569010920059
2024-12-30,-0.003835351941145579
2024-12-31,0.007133235480958382
2025-01-02,0.010934908372283524
2025-01-03,0.021098562031267976
2025-01-06,0.020010805614953102
2025-01-07,0.013327422090214903
2025-01-08,0.004510583969939308
2025-01-09,-0.0007080242023892597
2025-01-10,-0.003400524646742134
2025-01-13,-0.016790223931604745
2025-01-14,-0.013181094021181797
2025-01-15,-0.01995838723910473
2025-01-16,-0.020568127603481826
2025-01-17,-0.018331742098937925
2025-01-20,-0.012052439692611779
2025-01-21,-0.03623525271219953
2025-01-22,-0.04646437555213381
2025-01-23,-0.0491565458576336
2025-01-24,-0.04127683264283588
2025-01-27,-0.028449477450596256
2025-02-05,-0.024679171941567116
2025-02-06,-0.02863635574785761
2025-02-07,-0.025180710639853734
2025-02-10,-0.02005585407308301
2025-02-11,-0.023971265249030364
2025-02-12,-0.01768431922741682
2025-02-13,-0.013521447056171958
2025-02-14,-0.014983321426597411
2025-02-17,-0.015827475271520522
2025-02-18,-0.010327508426508283
2025-02-19,-0.019720864934998857
2025-02-20,-0.014357537409661012
2025-02-21,-0.03742455157662825
2025-02-24,-0.039023121316257924
2025-02-25,-0.05455988172582593
2025-02-26,-0.055954349803879505
2025-02-27,-0.04905779254218505
2025-02-28,-0.025952690421099024
2025-03-03,-0.021137890646272393
2025-03-04,-0.03568041682590776
2025-03-05,-0.040115964008139555
2025-03-06,-0.06219564833547249
2025-03-07,-0.06442567382632415
2025-03-10,-0.08290136182609471
2025-03-11,-0.06897495376918583
2025-03-12,-0.06674659982385305
2025-03-13,-0.041004810743850754
2025-03-14,-0.04346707740432004
2025-03-17,-0.04354867943952927
2025-03-18,-0.05823604467898766
2025-03-19,-0.05072882986557101
2025-03-20,-0.046648360046579344
2025-03-21,-0.02737654879176825
2025-03-24,-0.029023115599056654
2025-03-25,-0.007509464910740515
2025-03-26,-0.017105960742609064
2025-03-27,-0.015578591874699853
2025-03-28,-0.01619420817710696
2025-03-31,-0.010659829579153794
2025-04-01,0.002655956734106499
2025-04-02,0.009875245526690786
2025-04-03,0.012742212640291564
2025-04-07,0.032079585374846675
2025-04-08,0.05052439735847541
2025-04-09,0.04099657441251148
2025-04-10,0.021539588431762333
2025-04-11,0.012405394869801203
2025-04-14,-0.00021268877029078856
2025-04-15,0.0066205687373189145
2025-04-16,0.012618263157533186
2025-04-17,0.013825297358926819
2025-04-18,0.0125189998363779
2025-04-21,0.007069531778105643
2025-04-22,0.0063850766583872405
2025-04-23,0.0015915200410791565
2025-04-24,0.007225312088708323
2025-04-25,0.002336035717806908
2025-04-28,0.010772798767064412
2025-04-29,0.004363762305491372
2025-04-30,0.003634517118564891
2025-05-06,-0.000285841740791621
2025-05-07,0.011348300810443582
2025-05-08,0.011797515021010003
2025-05-09,0.01979200621372901
2025-05-12,0.01569138215339465
2025-05-13,0.018629435277666192
2025-05-14,0.019820088168200693
2025-05-15,0.02672030115948698
2025-05-16,0.025367955751341032
2025-05-19,0.01988204611182185
2025-05-20,0.017410844010044984
2025-05-21,0.01857161093404235
2025-05-22,0.01613288065427536
2025-05-23,0.02101484255505109
2025-05-26,0.02993444344517513
2025-05-27,0.03143744730329386
2025-05-28,0.030654067955837184
2025-05-29,0.023551789492272927
2025-05-30,0.03239168770864814
2025-06-03,0.026947319914416668
2025-06-04,0.015459182399372964
2025-06-05,0.011992022375180957
2025-06-06,0.011281868359350224
2025-06-09,0.003699886173387911
2025-06-10,0.007841419467313655
2025-06-11,0.007790261870623597
2025-06-12,0.00011826321344524451
2025-06-13,0.0027932603189119304
2025-06-16,-0.0027300253997418894
2025-06-17,0.012420054482475316
2025-06-18,0.01430162246189199
2025-06-19,0.02470930917526
2025-06-20,0.025329264771478434
2025-06-23,0.013982999400008134
2025-06-24,-0.0018087154750209
2025-06-25,-0.0014392608111898283
2025-06-26,0.00042353090593806597
2025-06-27,0.005020140256540032
2025-06-30,0.01204608347335124
2025-07-01,0.017956918408312608
2025-07-02,0.021441219292019878
2025-07-03,0.025359889714570268
2025-07-04,0.022499531161786025
2025-07-07,0.025054531004830113
2025-07-08,0.02875107282240167
2025-07-09,0.03053439797081274
2025-07-10,0.028494560952983694
2025-07-11,0.016134783740391012
2025-07-14,0.017764436377338308
2025-07-15,0.01051578194096734
2025-07-16,0.018787088778714378
2025-07-17,0.015280355572191887
2025-07-18,0.022830381179327647
2025-07-21,0.03447977807068643
2025-07-22,0.03620422342078682
2025-07-23,0.026596627755749863
2025-07-24,0.022428990737261026
2025-07-25,0.024802061192188952
2025-07-28,0.020610333721743077
2025-07-29,0.011803260841055915
2025-07-30,0.015952104665424814
2025-07-31,0.023425523160271897
2025-08-01,0.029541275164323463
2025-08-04,0.03265782847940116
2025-08-05,0.018743834097648418
2025-08-06,0.012280475837698049
2025-08-07,0.006947827049354732
2025-08-08,0.016901765137755695
2025-08-11,0.006424975508844258
2025-08-12,0.0032316825870329635
2025-08-13,0.0017095393022487637
2025-08-14,0.01567949991939846
2025-08-15,0.024430491826139183
2025-08-18,0.013680968076300523
2025-08-19,0.02201775273515589
2025-08-20,0.01921303308720175
2025-08-21,0.03262794508806683
2025-08-22,0.01094732907584671
2025-08-25,0.023194802032116973
2025-08-26,0.03631194304582746
2025-08-27,0.03318688338619297
2025-08-28,0.012310958789038082
2025-08-29,0.014715519808252923
2025-09-01,0.01832943822512568
2025-09-02,0.04367967688059841
2025-09-03,0.05419925548485274
2025-09-04,0.06807480495646077
2025-09-05,0.04856506936813264
2025-09-08,0.031718866566835494
2025-09-09,0.04911264694656692
2025-09-10,0.03942532303142336
2025-09-11,-0.00156893801609542
2025-09-12,-0.0039314432073977975
2025-09-15,0.009731683426871649
2025-09-16,0.0004909712399904179
2025-09-17,-0.007989433655643925
2025-09-18,0.008865598083109147
2025-09-19,0.025096364927700298
2025-09-22,0.0023222464626717586
2025-09-23,0.010073976572162698
2025-09-24,-0.00912205376265646
2025-09-25,-0.0312189264141323
2025-09-26,-0.026455394916235025
2025-09-29,-0.04426498364042307
2025-09-30,-0.051030898619621845
2025-10-09,-0.04455804167666533
2025-10-10,-0.020875992924993335
2025-10-13,-0.03980906212096272
2025-10-14,-0.018903867941985078
2025-10-15,-0.03258529955962699
2025-10-16,-0.016512272457295165
2025-10-17,-0.015251685690679518
2025-10-20,-0.014066649077243695
2025-10-21,-0.024397353082742403
2025-10-22,-0.021309484249464068
2025-10-23,-0.01778846029795879
2025-10-24,-0.05512032274492769
2025-10-27,-0.05960122927106191
2025-10-28,-0.04942943207140393
2025-10-29,-0.047773255477076525
2025-10-30,-0.04342412539360737
2025-10-31,-0.023894818722006286
2025-11-03,-0.013025243250382179
2025-11-04,-0.010710479511350991
2025-11-05,-0.011708453614249817
2025-11-06,-0.016170960206653765
2025-11-07,-0.006147038233474551
2025-11-10,0.02273581452183789
2025-11-11,0.03587524497634287
2025-11-12,0.03941042231428876
2025-11-13,0.025309698855240235
2025-11-14,0.04482261111983356
2025-11-17,0.02986080894128869
2025-11-18,0.02105900600039306
2025-11-19,0.03404306819344222
2025-11-20,0.025163894406358446
2025-11-21,0.04217844209910309
2025-11-24,0.05688517525538652
2025-11-25,0.05156692017747241
2025-11-26,0.046361221817838284
2025-11-27,0.04267722903773727
2025-11-28,0.037994244731262436
2025-12-01,0.03431201862342291
2025-12-02,0.04373967992560126
2025-12-03,0.042129082667170796
2025-12-04,0.04821110735936249
2025-12-05,0.04858509980073328
2025-12-08,0.04339159284541566
2025-12-09,0.0365064673689594
2025-12-10,0.04343667929134083
2025-12-11,0.06136365155559771
2025-12-12,0.0431810518047146
2025-12-15,0.06412462660613327
2025-12-16,0.07862277185006475
2025-12-17,0.07429464456793289
2025-12-18,0.07966866200806258
2025-12-19,0.06937349262088394
2025-12-22,0.07438305783512035
2025-12-23,0.06731862817308293
2025-12-24,0.06941904101002178
2025-12-25,0.060867835863018374
2025-12-26,0.06933356578145008
2025-12-29,0.07247626423454817
2025-12-30,0.05446240547204483
2025-12-31,0.05331560778640336
2026-01-05,0.022161432980651707
2026-01-06,0.029682382750965533
2026-01-07,0.007850524348554256
2026-01-08,-0.008151671362071225
2026-01-09,-0.015593175107174046
2026-01-12,-0.020869069515782063
2026-01-13,-0.004277796357588045
2026-01-14,-0.01953091055939489
2026-01-15,-0.008707105825646141
2026-01-16,-0.014873364933030476
2026-01-19,-0.009673673979605207
2026-01-20,0.011123602499574633
2026-01-21,0.00983417274869371
2026-01-22,0.007903152627313944
2026-01-23,-0.003677981186344102
2026-01-26,-0.020014463451489627
2026-01-27,-0.02334979259052068
2026-01-28,-0.017950742217311192
2026-01-29,-0.013211289338931977
2026-01-30,-0.007434302624820536
2026-02-02,0.020798967106697194
2026-02-03,-0.0034972699889840625
2026-02-04,0.006508426499301667
2026-02-05,0.013789732625982268
2026-02-06,0.01204517733822751
2026-02-09,-0.01439240560629788
2026-02-10,-0.008366174587256674
2026-02-11,-0.01266122970279656
2026-02-12,-0.028819496702514304
2026-02-13,-0.031206289798331142
2026-02-24,-0.03908377384916086
2026-02-25,-0.03062819239081857
2026-02-26,-0.04662212755961421
2026-02-27,-0.04393340749341813
2026-03-02,-0.04680059473483453
2026-03-03,-0.03944100977450949
2026-03-04,-0.04182902970132417
2026-03-05,-0.05241819363891484
2026-03-06,-0.03445023565818111
2026-03-09,-0.031869646445741015
2026-03-10,-0.016804891508336264
2026-03-11,-0.008059093832322506
2026-03-12,0.0014507604740040085
2026-03-13,0.014799390099299349
2026-03-16,0.023376314765552207
2026-03-17,0.03330488013751981
2026-03-18,0.0299930319893632
2026-03-19,0.04413173328181628
2026-03-20,0.047060340825393995
2026-03-23,0.050344483378991126
2026-03-24,0.06325875036804024
2026-03-25,0.052692741716892824
2026-03-26,0.055470254874917954
2026-03-27,0.07112812974905033
2026-03-30,0.056032549077487816
2026-03-31,0.07531676008786453
2026-04-01,0.07932477658030114
2026-04-02,0.11334610399214645
2026-04-03,0.11838345837263317
2026-04-07,0.11029924093374764
2026-04-08,0.10478653741967658
2026-04-09,0.10939105663877843
2026-04-10,0.1207205422364403
2026-04-13,0.10294370713416852
2026-04-14,0.09042024123956488
2026-04-15,0.1136576754875325
2026-04-16,0.10096921623926372
2026-04-17,0.10452414675753069
2026-04-20,0.08443323292924157
2026-04-21,0.11100174236087615
2026-04-22,0.12092726462412631
2026-04-23,0.12552495211127063
2026-04-24,0.11939198613464927
2026-04-27,0.1161191577977358
2026-04-28,0.10070703351177153
2026-04-29,0.07081046840786634
2026-04-30,0.07182878605146922
2026-05-06,0.06907095680082692
2026-05-07,0.06922205024497746
2026-05-08,0.05939659152781564
2026-05-11,0.023036171955255785
2026-05-12,0.04875168492390096
2026-05-13,0.018485167446097753
2026-05-14,0.031155227176022877
2026-05-15,0.02796103654463775
2026-05-18,0.05333852932939237
2026-05-19,0.07056262414175676
2026-05-20,0.07986676287113731
2026-05-21,0.12853770293214375
2026-05-22,0.11782355944695587
2026-05-25,0.07295808211227864
2026-05-26,0.10158227746873807
2026-05-27,0.13505442975324114
