date,long_short
2015-02-25,-0.013216294066341047
2015-02-26,0.035909371829435266
2015-02-27,0.038576619572626425
2015-03-02,0.03592212007770248
2015-03-03,0.04832375893200179
2015-03-04,0.0666268082400616
2015-03-05,0.05532893184580796
2015-03-06,0.04818921050003801
2015-03-09,0.012189093788580685
2015-03-10,0.016819305252875894
2015-03-11,-0.01582468140372753
2015-03-12,-0.013859425678423826
2015-03-13,0.026004496810257793
2015-03-16,0.027088447157862017
2015-03-17,0.02247687859738766
2015-03-18,0.020767992494922685
2015-03-19,0.02846578895459935
2015-03-20,0.0023223577572234894
2015-03-23,-0.0038191076730156592
2015-03-24,0.010988043998048175
2015-03-25,0.015479447096927113
2015-03-26,0.008704555491907517
2015-03-27,0.01059720535102035
2015-03-30,0.015782970567435092
2015-03-31,0.018018097889214657
2015-04-01,0.011596792529310646
2015-04-02,0.01738518364863248
2015-04-03,0.01273430729468325
2015-04-07,0.008991776405220711
2015-04-08,-0.0033685224603896106
2015-04-09,-0.00342775855091082
2015-04-10,0.019401989298412525
2015-04-13,0.026780867281053417
2015-04-14,0.018106309213742178
2015-04-15,0.009491467965654643
2015-04-16,0.006206736226535718
2015-04-17,0.00954430423282283
2015-04-20,0.02690223244108407
2015-04-21,0.033668090634024726
2015-04-22,0.040048988070758296
2015-04-23,0.0411378354404469
2015-04-24,0.04717723852772694
2015-04-27,0.039542970856665624
2015-04-28,0.029680938337995705
2015-04-29,0.025984755229074973
2015-04-30,-0.005201763087872013
2015-05-04,0.01945612983638792
2015-05-05,0.04939528128580101
2015-05-06,0.04743515307950129
2015-05-07,0.06415752518797663
2015-05-08,0.07684844468518343
2015-05-11,0.07281196168283836
2015-05-12,0.060484053020734715
2015-05-13,0.06564856514038889
2015-05-14,0.09569513081233402
2015-05-15,0.1087215767630996
2015-05-18,0.09909379548445724
2015-05-19,0.0757276076162618
2015-05-20,0.06937003554853283
2015-05-21,0.03236669930644892
2015-05-22,0.002471695681453001
2015-05-25,0.005372808994713173
2015-05-26,-0.04714158556836245
2015-05-27,-0.05646933435831118
2015-05-28,-0.07944254231612259
2015-05-29,-0.08879460142377175
2015-06-01,-0.0826775359558909
2015-06-02,-0.08075867392446656
2015-06-03,-0.10223935250582217
2015-06-04,-0.09266903582269975
2015-06-05,-0.11038018116071652
2015-06-08,-0.12527835273801205
2015-06-09,-0.09290116334264048
2015-06-10,-0.11289961883858696
2015-06-11,-0.10169044198822871
2015-06-12,-0.10136960001801958
2015-06-15,-0.07176341855024929
2015-06-16,-0.07948055398434098
2015-06-17,-0.08702220892011302
2015-06-18,-0.06845559401903456
2015-06-19,-0.04473488511162778
2015-06-23,-0.032049160066971435
2015-06-24,-0.023106663623138124
2015-06-25,-0.005071813294522026
2015-06-26,0.029426232825844258
2015-06-29,0.012425988538238494
2015-06-30,-0.03062024216655608
2015-07-01,0.0023821337844150484
2015-07-02,0.013027956304052568
2015-07-03,0.016243521145702624
2015-07-06,-0.01698500446430534
2015-07-07,0.033715128750462134
2015-07-08,0.04142018492223623
2015-07-09,0.014671101644392991
2015-07-10,-0.00286188813945696
2015-07-13,-0.000845041703740626
2015-07-14,-0.03533547099029559
2015-07-15,-0.015770392095000575
2015-07-16,-0.01595169900817195
2015-07-17,-0.028353063047437854
2015-07-20,-0.03254388910073171
2015-07-21,-0.039719373267575436
2015-07-22,-0.04004554110460343
2015-07-23,-0.049249454429863795
2015-07-24,-0.058484215080149
2015-07-27,-0.0365785653572171
2015-07-28,-0.06937011308455295
2015-07-29,-0.06887873528123918
2015-07-30,-0.054231437929788975
2015-07-31,-0.03912959516186853
2015-08-03,-0.02111859747656425
2015-08-04,-0.05849503546261277
2015-08-05,-0.05483704679232608
2015-08-06,-0.03979543641218952
2015-08-07,-0.043350315856179863
2015-08-10,-0.06022202311147512
2015-08-11,-0.04766012637939916
2015-08-12,-0.04526109247867337
2015-08-13,-0.04029541276818965
2015-08-14,-0.0730484565036357
2015-08-17,-0.07557751863869495
2015-08-18,-0.04390009857177829
2015-08-19,-0.05697549606408736
2015-08-20,-0.04199193674692185
2015-08-21,-0.03996600035824858
2015-08-24,-0.038401177787419846
2015-08-25,0.0027591624566255454
2015-08-26,0.016622980249773753
2015-08-27,0.01203314304435845
2015-08-28,0.014637711231474872
2015-08-31,0.007750688195654595
2015-09-01,0.011541435211941216
2015-09-02,0.018466683001270724
2015-09-07,0.007977883283111768
2015-09-08,0.01352320077093611
2015-09-09,0.012133444003826311
2015-09-10,0.0007439725801994951
2015-09-11,-0.001322267563863326
2015-09-14,0.020897711314995397
2015-09-15,0.05006336014731788
2015-09-16,-0.0006210514931605446
2015-09-17,0.03408322036495882
2015-09-18,0.03137225475380403
2015-09-21,0.022928078243786093
2015-09-22,0.021677795301874796
2015-09-23,0.010723629992031178
2015-09-24,0.0074287127900238975
2015-09-25,0.023171849565982908
2015-09-28,0.0058039874305878675
2015-09-29,-0.002470572104937424
2015-09-30,0.027833141149465446
2015-10-08,0.03640479351437316
2015-10-09,0.05560926151227573
2015-10-12,0.04600532283616539
2015-10-13,0.029448828320126477
2015-10-14,0.04431597263604928
2015-10-15,0.03524969651918747
2015-10-16,0.03432622176533744
2015-10-19,0.04694880742603862
2015-10-20,0.024677476897918396
2015-10-21,0.05360702059287391
2015-10-22,0.04071783228470779
2015-10-23,0.043798421365426554
2015-10-26,0.0363130740450662
2015-10-27,0.03135374664969355
2015-10-28,0.0694219393390405
2015-10-29,0.06674884715162648
2015-10-30,0.02869560405375958
2015-11-02,0.033077132108640085
2015-11-03,0.0408649841856749
2015-11-04,0.010608199395329703
2015-11-05,0.03260817662215962
2015-11-06,0.015080134808869192
2015-11-09,0.004530070240477427
2015-11-10,0.0007874854400762785
2015-11-11,-0.0065403346394576
2015-11-12,-0.0011841244565211628
2015-11-13,-0.006127642791004237
2015-11-16,-0.0012146134290113332
2015-11-17,0.011530991754978535
2015-11-18,0.010620913675879412
2015-11-19,0.010262101695373203
2015-11-20,0.013931616030713044
2015-11-23,0.025494829013138324
2015-11-24,0.022362545539685127
2015-11-25,0.008554363344619464
2015-11-26,0.010855712513743438
2015-11-27,0.026336175646972635
2015-11-30,0.02908662855308341
2015-12-01,0.034801283550717016
2015-12-02,0.04102649070019798
2015-12-03,0.0169339991110098
2015-12-04,-0.014464540760729198
2015-12-07,0.025757502447311183
2015-12-08,-0.00775914411384279
2015-12-09,0.009856878606441521
2015-12-10,0.007972510642342397
2015-12-11,0.013358515006523686
2015-12-14,-0.0024468192683665124
2015-12-15,-0.013399644537253758
2015-12-16,-0.041533423331974934
2015-12-17,-0.023287189474306025
2015-12-18,-0.01953315848868077
2015-12-21,-0.023805632419984082
2015-12-22,-0.017698648103987025
2015-12-23,-0.00251061002048511
2015-12-24,-0.002057647023088277
2015-12-25,0.000962687640238713
2015-12-28,-0.0170563506884934
2015-12-29,-0.021860038836139573
2015-12-30,-0.026807802217381216
2015-12-31,-0.04885648649271798
2016-01-04,-0.03055530164276589
2016-01-05,-0.03674083842915252
2016-01-06,-0.02643622743607267
2016-01-07,-0.021432439395999647
2016-01-08,-0.018312256896298465
2016-01-11,-0.01090779080289371
2016-01-12,-0.019668007765031352
2016-01-13,0.00233841127036534
2016-01-14,-0.0016062816197180557
2016-01-15,-0.006333724967115531
2016-01-18,-0.007821433619596729
2016-01-19,-0.010860686289599776
2016-01-20,-0.0188208447497591
2016-01-21,-0.04580426938039292
2016-01-22,-0.051668782721356776
2016-01-25,-0.06812419171666069
2016-01-26,-0.03671105403449193
2016-01-27,-0.031855876447607775
2016-01-28,-0.01820243691881701
2016-01-29,-0.03436351071672798
2016-02-01,-0.029699948715253027
2016-02-02,-0.03608782830958249
2016-02-03,-0.02440475603783784
2016-02-04,-0.006630681951918262
2016-02-05,-0.017398008991832775
2016-02-15,-0.029926054496565664
2016-02-16,-0.035765299973271006
2016-02-17,-0.03811743344450081
2016-02-18,-0.02611848520165925
2016-02-19,-0.014465084722713219
2016-02-22,-0.021891521945611298
2016-02-23,-0.01655059672790031
2016-02-24,-0.018363450168357973
2016-02-25,-0.02859812808365389
2016-02-26,-0.013172433034637436
2016-02-29,0.0012157910593630916
2016-03-01,0.003089604210096894
2016-03-02,0.005867331798331158
2016-03-03,0.010109786023689844
2016-03-04,0.01768797815611352
2016-03-07,0.03239853200132265
2016-03-08,0.041071847664230846
2016-03-09,0.027612131744725057
2016-03-10,0.032308204023587056
2016-03-11,0.037405444544487625
2016-03-14,0.029826861530351488
2016-03-15,0.01888681897474831
2016-03-16,0.003624450646540399
2016-03-17,-0.0035149288361265504
2016-03-18,-0.0030319892389848446
2016-03-21,-0.02515176870028747
2016-03-22,-0.029729597185572484
2016-03-23,-0.04865798826436549
2016-03-24,-0.04070629723775139
2016-03-25,-0.028880491162998664
2016-03-28,-0.021200234211645557
2016-03-29,-0.020454129184760222
2016-03-30,-0.03154599500886261
2016-03-31,-0.027612681017735233
2016-04-01,-0.010425588091214794
2016-04-05,-0.019031072015941532
2016-04-06,-0.02212928660525908
2016-04-07,-0.022731801576032357
2016-04-08,-0.005842700081312345
2016-04-11,-0.010740561643978404
2016-04-12,-0.01304519128651932
2016-04-13,-0.00617784759779532
2016-04-14,0.0003946923626188606
2016-04-15,-0.0034521310140319394
2016-04-18,-0.010558284396742272
2016-04-19,0.015263309563733687
2016-04-20,0.010494345007059622
2016-04-21,0.017805864975626508
2016-04-22,0.009072335532248154
2016-04-25,0.002056906992343975
2016-04-26,-0.013419281752984253
2016-04-27,-0.0129705389173373
2016-04-28,-0.007083199747748197
2016-04-29,-0.0056257473831030445
2016-05-03,-0.025815279331898616
2016-05-04,-0.0229872194089404
2016-05-05,-0.025080827595926957
2016-05-06,-0.01349852007364318
2016-05-09,-0.004592212078320536
2016-05-10,-0.018737238568875065
2016-05-11,-0.014896247302409883
2016-05-12,0.004869712812566672
2016-05-13,-0.011065395448007552
2016-05-16,-0.011964577266844242
2016-05-17,-0.006068833312294852
2016-05-18,0.008564719421760854
2016-05-19,-0.016530832794230687
2016-05-20,-0.005196020134709198
2016-05-23,-0.010388912525790845
2016-05-24,-0.006731562708839112
2016-05-25,0.02249054332353656
2016-05-26,0.026166234736728092
2016-05-27,0.0168703915067875
2016-05-30,0.022061866751257698
2016-05-31,0.018028707988459115
2016-06-01,0.011574593343729477
2016-06-02,0.00833911728113311
2016-06-03,0.008497282460924207
2016-06-06,0.005957583416086142
2016-06-07,0.01885423197827788
2016-06-08,0.010757375268093346
2016-06-13,-0.006825165310497205
2016-06-14,-0.0021893729578354656
2016-06-15,-0.022640636265752537
2016-06-16,-0.026192633990871288
2016-06-17,-0.0185258228605127
2016-06-20,-0.01390608464885481
2016-06-21,-0.014548978289016204
2016-06-22,-0.0027510120637839752
2016-06-23,-0.00761567347067333
2016-06-24,-0.015182194943318503
2016-06-27,-0.027228639997490298
2016-06-28,-0.024004382834433582
2016-06-29,-0.026423332961466484
2016-06-30,-0.025875407161074074
2016-07-01,-0.02569755821676701
2016-07-04,-0.04084953377012779
2016-07-05,-0.02663576607314928
2016-07-06,-0.019591261757030964
2016-07-07,-0.0245226126198723
2016-07-08,-0.03214559266226609
2016-07-11,-0.01156439851183232
2016-07-12,-0.008858314368389303
2016-07-13,-0.007349072073777774
2016-07-14,-0.02306662806194571
2016-07-15,-0.021895900468071085
2016-07-18,-0.011774644093437585
2016-07-19,-0.020236180011366473
2016-07-20,-0.02108307638922867
2016-07-21,-0.0010829309471754207
2016-07-22,-0.007518881147940283
2016-07-25,-0.0069096118486390475
2016-07-26,-0.0185193557461895
2016-07-27,-0.018451981077249727
2016-07-28,-0.018129494192808654
2016-07-29,-0.015057061174164436
2016-08-01,-0.008854159506535689
2016-08-02,-0.005480731415343457
2016-08-03,-0.004125047964307835
2016-08-04,-0.01690053190991281
2016-08-05,-0.009743700833636317
2016-08-08,-0.0013003870339403367
2016-08-09,-0.010360047402384803
2016-08-10,-0.011613753595062417
2016-08-11,-0.004398330742738828
2016-08-12,-0.006260878444501915
2016-08-15,-0.0028685939230665147
2016-08-16,-0.007823204330739374
2016-08-17,0.008888939957870146
2016-08-18,-0.010764239190123571
2016-08-19,-0.00588589720345117
2016-08-22,-0.007826582162454526
2016-08-23,-0.009462291396311195
2016-08-24,-0.006730965595375055
2016-08-25,-0.0025056079690974897
2016-08-26,-0.01010878759413109
2016-08-29,-0.007497910108217008
2016-08-30,-0.004994033651537055
2016-08-31,-0.0022343967270566697
2016-09-01,-0.02103662271188251
2016-09-02,-0.016452065423896725
2016-09-05,-0.01903845192864566
2016-09-06,-0.009704070186661883
2016-09-07,-0.006901547882545903
2016-09-08,-0.011201633159302275
2016-09-09,0.008348317097632871
2016-09-12,-0.004173632463762759
2016-09-13,-0.009117217779808472
2016-09-14,-0.022722914745868992
2016-09-19,-0.023561269356623893
2016-09-20,-0.019522307918885654
2016-09-21,-0.014010983077848992
2016-09-22,-0.004291129477057778
2016-09-23,-0.009735888462686746
2016-09-26,-0.01143266031444818
2016-09-27,-0.007375749013758523
2016-09-28,-0.008299304730475594
2016-09-29,-0.006432444150494335
2016-09-30,-0.018345829765169287
2016-10-10,-0.007596269885933982
2016-10-11,-0.011535679762288841
2016-10-12,0.0012893942303364436
2016-10-13,-0.0057372858599420845
2016-10-14,-0.0029447607291860634
2016-10-17,-8.209193162320855e-05
2016-10-18,-0.011774935377579548
2016-10-19,-0.005842415392484857
2016-10-20,-0.02572832480851161
2016-10-21,-0.008419469659795105
2016-10-24,-0.004349549350444822
2016-10-25,-0.005155129223654676
2016-10-26,-0.0005833766735370144
2016-10-27,0.0030564459225239926
2016-10-28,-0.0013851465780285802
2016-10-31,-0.0009645763054742865
2016-11-01,-0.008648757693358475
2016-11-02,-0.0071763562311570675
2016-11-03,-0.009488086814069839
2016-11-04,-0.011814714023681696
2016-11-07,-0.0008401816960797899
2016-11-08,-0.003689241053162616
2016-11-09,-0.01464979848385713
2016-11-10,-0.015291670668412045
2016-11-11,-0.0252318508579559
2016-11-14,-0.008848217777368177
2016-11-15,-0.01863669021125157
2016-11-16,-0.015312711961285107
2016-11-17,-0.0195750548597831
2016-11-18,-0.014515271324882223
2016-11-21,-0.017594287321439226
2016-11-22,-0.0018805006679494599
2016-11-23,-0.011956759248471664
2016-11-24,-0.014301400550993729
2016-11-25,-0.01944809076709781
2016-11-28,0.0044046420950562964
2016-11-29,0.000493713264295377
2016-11-30,-0.006728447381830899
2016-12-01,-0.003506625797237678
2016-12-02,-0.01804916360715616
2016-12-05,-0.042891903284719035
2016-12-06,-0.03607173278293166
2016-12-07,-0.03538241694534573
2016-12-08,-0.025977435406931152
2016-12-09,-0.02143972683461885
2016-12-12,-0.02811878436754639
2016-12-13,-0.037859947585689654
2016-12-14,-0.032775667433020066
2016-12-15,-0.015472839838634705
2016-12-16,-0.023342098760311583
2016-12-19,-0.02449700627173916
2016-12-20,-0.035150786304228965
2016-12-21,-0.028618266841385895
2016-12-22,-0.028332525023246145
2016-12-23,-0.026543712757727107
2016-12-26,-0.017796207213560643
2016-12-27,-0.012259087231365564
2016-12-28,-0.013014675155293854
2016-12-29,-0.01818561982185584
2016-12-30,0.002375649605281572
2017-01-03,0.01184964164389338
2017-01-04,0.0035993633912815145
2017-01-05,0.00385419830415177
2017-01-06,-0.00502151190665311
2017-01-09,-0.004890455217746203
2017-01-10,0.0012159858320505744
2017-01-11,0.0038042326547370244
2017-01-12,0.0017505725962030788
2017-01-13,0.0008852368707943162
2017-01-16,0.0036822557801864594
2017-01-17,-0.0014625383160918465
2017-01-18,-0.004533168596216441
2017-01-19,0.0035049158565993097
2017-01-20,0.000782037591860997
2017-01-23,0.0007251091699963935
2017-01-24,-0.00665927216116257
2017-01-25,-0.011097366137900962
2017-01-26,-0.011092066179476051
2017-02-03,-0.008005941026615601
2017-02-06,-0.01271221532825703
2017-02-07,-0.00671396876770778
2017-02-08,-0.00782781255001255
2017-02-09,-0.005045227646364303
2017-02-10,5.416761762032894e-05
2017-02-13,-0.0032720185593567985
2017-02-14,-0.003471899438697171
2017-02-15,-0.001715685878285524
2017-02-16,-0.012290614483574453
2017-02-17,-0.014646879484238364
2017-02-20,-0.014614612680505484
2017-02-21,-0.023116468472951665
2017-02-22,-0.015391872610536528
2017-02-23,-0.01476282269091512
2017-02-24,-0.014946212554773259
2017-02-27,-0.008726604770921235
2017-02-28,-0.007498348318051167
2017-03-01,-0.0013419706526595077
2017-03-02,0.008203893341215171
2017-03-03,0.015495448400187782
2017-03-06,0.007212996421694596
2017-03-07,0.006117443871821153
2017-03-08,0.003647917307472783
2017-03-09,0.008684019583899387
2017-03-10,0.006206659580229618
2017-03-13,0.016043738813645996
2017-03-14,-0.0007604268280032335
2017-03-15,0.005455468916470289
2017-03-16,0.0094666461924525
2017-03-17,0.013145253609167656
2017-03-20,0.024432530709040185
2017-03-21,0.020700403158258354
2017-03-22,0.02323915118087765
2017-03-23,0.01926430299707258
2017-03-24,0.024239069488895724
2017-03-27,0.010524778929408044
2017-03-28,0.018799105070290673
2017-03-29,0.018236073921980664
2017-03-30,0.011602807635013776
2017-03-31,0.004288176568824725
2017-04-05,0.006298250611984073
2017-04-06,0.021389407052237675
2017-04-07,0.022750059654593542
2017-04-10,0.010597295607978743
2017-04-11,0.02518826900151308
2017-04-12,0.017901750542622274
2017-04-13,0.010256571862759613
2017-04-14,-0.0029374571807043483
2017-04-17,-0.005789067768621999
2017-04-18,-0.009022062751764648
2017-04-19,-0.017427521946730574
2017-04-20,-0.02026762462067892
2017-04-21,-0.021806279699517588
2017-04-24,-0.009720049872588305
2017-04-25,0.0045982449425222465
2017-04-26,-0.008915070297952419
2017-04-27,-0.017076119873123193
2017-04-28,0.00038662911267260593
2017-05-02,0.01672718685255528
2017-05-03,0.009780844423283567
2017-05-04,0.0031917222905942042
2017-05-05,-0.013026087056232854
2017-05-08,-0.014226032493324223
2017-05-09,-0.0085104762211782
2017-05-10,-0.010049620117801732
2017-05-11,-0.0015134087405000093
2017-05-12,0.006321864183396024
2017-05-15,-0.005915726256868221
2017-05-16,0.009633032224943236
2017-05-17,0.0024993179726195136
2017-05-18,0.0004614553643463859
2017-05-19,0.0023071510377745755
2017-05-22,0.006445047919898458
2017-05-23,-0.009160996553720102
2017-05-24,-0.0003609102924344715
2017-05-25,0.018965881090635076
2017-05-26,0.017973178250451943
2017-05-31,0.02044449622666997
2017-06-01,0.01076989449582548
2017-06-02,0.010988058042821006
2017-06-05,0.0022366303999933612
2017-06-06,0.00731317044165164
2017-06-07,0.0020360023519666592
2017-06-08,0.008473034889279765
2017-06-09,0.0014394355143043415
2017-06-12,-0.010404247705808917
2017-06-13,-0.0004116223399731403
2017-06-14,0.0052790106778931555
2017-06-15,0.0025833651197227636
2017-06-16,0.019958714834379426
2017-06-19,0.04294135324772387
2017-06-20,0.021128243893752084
2017-06-21,0.021569069317413335
2017-06-22,0.01818893139235049
2017-06-23,0.016405637541167667
2017-06-26,0.01986060590413689
2017-06-27,0.014984363264550047
2017-06-28,0.007255822316355548
2017-06-29,0.0033697693324698953
2017-06-30,-0.0035821382620864865
2017-07-03,-0.003007723941952832
2017-07-04,-0.013233497934718681
2017-07-05,-0.006807707047320829
2017-07-06,0.010493009916055061
2017-07-07,0.00821889764955727
2017-07-10,0.0016664842594946265
2017-07-11,0.008190329982078286
2017-07-12,-0.003501492170274439
2017-07-13,0.010678399158174657
2017-07-14,0.013292018018092341
2017-07-17,-0.020268913766606243
2017-07-18,-0.01395273084929714
2017-07-19,-0.014798950872458175
2017-07-20,-0.009301324318882939
2017-07-21,-0.013508341235590499
2017-07-24,-0.01680228962891462
2017-07-25,-0.001077520200537068
2017-07-26,-0.0012656120730714163
2017-07-27,0.007135634040984504
2017-07-28,0.0023162371590606315
2017-07-31,0.004602480300000628
2017-08-01,0.01427733004736471
2017-08-02,0.005004034895250253
2017-08-03,0.007214892897295915
2017-08-04,0.00910361356018425
2017-08-07,0.011551899872759657
2017-08-08,0.006668600814223786
2017-08-09,0.0008180017014163751
2017-08-10,-0.004682958708720604
2017-08-11,-0.008005167990197647
2017-08-14,-0.006723315751356179
2017-08-15,-0.0024699983512093474
2017-08-16,0.006706120786845765
2017-08-17,-0.0008246015190478337
2017-08-18,0.004363240817743089
2017-08-21,0.0028721535572112794
2017-08-22,0.007652226916233171
2017-08-23,-0.004967073809853315
2017-08-24,-0.0054818346664517285
2017-08-25,0.0017310538843742125
2017-08-28,0.0014635778843471391
2017-08-29,-0.0121722844385611
2017-08-30,-0.015363153222849759
2017-08-31,-0.004471688450182634
2017-09-01,-0.004791033883687632
2017-09-04,-0.013724799738441804
2017-09-05,-0.014855627510359584
2017-09-06,-0.009239537107030559
2017-09-07,-0.02253393060663389
2017-09-08,-0.022071789868780632
2017-09-11,-0.007260313131264937
2017-09-12,-0.008565292034191319
2017-09-13,-0.007347647973053709
2017-09-14,-0.006517468245403456
2017-09-15,-0.014885920791423035
2017-09-18,-0.013624815317403234
2017-09-19,-0.011156151407655843
2017-09-20,-0.008904209845690179
2017-09-21,-0.015363953773023959
2017-09-22,-0.02517059767117076
2017-09-25,-0.0217590694558217
2017-09-26,-0.01449868276017752
2017-09-27,-0.014583349201711445
2017-09-28,-0.008151446828512009
2017-09-29,-0.0006224778287226094
2017-10-09,0.0041711137871039035
2017-10-10,0.0025650383996952755
2017-10-11,-0.005933424652972242
2017-10-12,0.009176321320658572
2017-10-13,0.006189543023044759
2017-10-16,0.00706692398304903
2017-10-17,0.014630003118376585
2017-10-18,0.01102524473005138
2017-10-19,0.011739162699397445
2017-10-20,0.018407287694001816
2017-10-23,0.014937705794911408
2017-10-24,0.017944981260443346
2017-10-25,0.010865300875566752
2017-10-26,0.016919321730386835
2017-10-27,-0.0024516310941672566
2017-10-30,0.01226365416108851
2017-10-31,0.0005537868201578738
2017-11-01,-0.007998275213195499
2017-11-02,-0.002785562558126205
2017-11-03,-0.002876399339969723
2017-11-06,-0.0007692202459902093
2017-11-07,0.0012352103906628775
2017-11-08,0.013433569157716301
2017-11-09,0.0022266396950064125
2017-11-10,0.008052549341176964
2017-11-13,0.012655792210509364
2017-11-14,0.009923726250817168
2017-11-15,-0.003130923633178278
2017-11-16,-0.0047291523036603455
2017-11-17,-0.008451650127230953
2017-11-20,-0.011594403079207994
2017-11-21,-0.018009680134637884
2017-11-22,0.0005713912954420607
2017-11-23,-0.011375486271542827
2017-11-24,0.0009668350163866742
2017-11-27,0.008437849635224868
2017-11-28,0.006643254427177604
2017-11-29,0.013389392983426562
2017-11-30,0.01776443705640103
2017-12-01,0.01631503868394128
2017-12-04,0.013900404350136722
2017-12-05,0.0014478302309713503
2017-12-06,-0.00400263331322781
2017-12-07,-6.750891692648697e-05
2017-12-08,-0.0021131090332473443
2017-12-11,-0.0008203363844517478
2017-12-12,0.008994079691671337
2017-12-13,0.016851737792601122
2017-12-14,0.0075502184794575405
2017-12-15,0.01939342122927617
2017-12-18,0.01608066398541384
2017-12-19,0.01550201434644552
2017-12-20,-0.0007832113897704232
2017-12-21,-0.007833959215768408
2017-12-22,-0.010164735240500818
2017-12-25,-7.061893542284481e-05
2017-12-26,-0.010722244652801943
2017-12-27,-0.007457275440580072
2017-12-28,0.003929048157644846
2017-12-29,-0.002175666240141441
2018-01-02,0.006555129909424091
2018-01-03,0.022966002098844404
2018-01-04,0.03227750587164124
2018-01-05,0.03372468541167355
2018-01-08,0.028988422435695764
2018-01-09,0.04411728573822729
2018-01-10,0.018523884839598687
2018-01-11,0.021140729528680624
2018-01-12,0.0316001138583646
2018-01-15,0.008943380336336904
2018-01-16,0.011327320320135698
2018-01-17,0.021011216178018467
2018-01-18,0.015187834164054448
2018-01-19,0.01830022937837513
2018-01-22,-0.0029552373938054807
2018-01-23,-0.009624048833815742
2018-01-24,-0.005856636848308207
2018-01-25,0.004486088895701408
2018-01-26,0.0034350983047346934
2018-01-29,-0.004068627969328255
2018-01-30,-0.00021725332165334343
2018-01-31,-0.006850776761584
2018-02-01,-0.01618439528783299
2018-02-02,-0.03567056638242695
2018-02-05,-0.045705091716492216
2018-02-06,-0.06459755861668771
2018-02-07,-0.04938801750720173
2018-02-08,-0.043921637459379465
2018-02-09,-0.04991657578113827
2018-02-12,-0.03816013911800217
2018-02-13,-0.04250191668693163
2018-02-14,-0.04790869238486241
2018-02-22,-0.03492757490842564
2018-02-23,-0.016648863783237326
2018-02-26,-0.018008353435173124
2018-02-27,-0.03134429657177598
2018-02-28,-0.025436229484794886
2018-03-01,-0.013409282863935881
2018-03-02,-0.022481468453031266
2018-03-05,-0.022375495915352407
2018-03-06,-0.01584049442619552
2018-03-07,-0.01662973081085519
2018-03-08,-0.02085344177796163
2018-03-09,-0.011131743024681891
2018-03-12,-0.00037474309930218136
2018-03-13,0.0013487961739667362
2018-03-14,0.008324315570122691
2018-03-15,0.006693756740967394
2018-03-16,0.00635613024986835
2018-03-19,0.002476974971584854
2018-03-20,-0.005727956589602526
2018-03-21,-0.0026009646705946465
2018-03-22,0.010136524025712572
2018-03-23,-0.004135394740420229
2018-03-26,-0.006561954030617618
2018-03-27,-0.004716717721499394
2018-03-28,-0.011230312014211366
2018-03-29,-0.01852091548314614
2018-03-30,-0.01224229180784356
2018-04-02,-0.0055608834907227775
2018-04-03,-0.013589507505362638
2018-04-04,-0.00880301539291804
2018-04-09,-0.004340226689547068
2018-04-10,-0.005540139702655647
2018-04-11,-0.009085607985730843
2018-04-12,-0.0070894319240906245
2018-04-13,-0.007030483111816473
2018-04-16,-0.00027479865790967957
2018-04-17,-0.006731412634455444
2018-04-18,-0.0048727228007285
2018-04-19,-0.006208094480414405
2018-04-20,-0.014386544618902814
2018-04-23,-0.013144872207211927
2018-04-24,-0.010815455212258407
2018-04-25,-0.00733589549093389
2018-04-26,0.0007999639019915187
2018-04-27,0.005034838995003426
2018-05-02,0.007589040144943267
2018-05-03,0.004293360911657884
2018-05-04,0.010469935351890634
2018-05-07,0.01575279078531021
2018-05-08,0.016226891989959396
2018-05-09,0.018546275092160065
2018-05-10,0.01342315009937356
2018-05-11,0.01603223996677515
2018-05-14,0.008386042499068373
2018-05-15,0.014367780165271245
2018-05-16,0.010360914184232926
2018-05-17,0.014260169641432521
2018-05-18,0.016568709092197494
2018-05-21,0.044047068206667685
2018-05-22,0.012631249837174723
2018-05-23,0.03799819370402792
2018-05-24,0.03565404836484721
2018-05-25,0.028269609020613908
2018-05-28,0.02834650048388867
2018-05-29,0.029369311943370495
2018-05-30,0.017306362550406865
2018-05-31,0.016817353379894893
2018-06-01,0.015299906890911437
2018-06-04,0.010554295272323794
2018-06-05,0.012972404078393798
2018-06-06,0.009862378019108706
2018-06-07,0.017013050226472648
2018-06-08,0.011771218706124298
2018-06-11,0.01221620672734585
2018-06-12,0.01854709877097531
2018-06-13,0.01316101093622038
2018-06-14,0.018065347230096777
2018-06-15,0.020507105464430624
2018-06-19,-0.0024360152412712076
2018-06-20,0.0023971894160215827
2018-06-21,0.007380870880591155
2018-06-22,0.002100045250936846
2018-06-25,-0.005052209546163565
2018-06-26,-0.020823960128379254
2018-06-27,-0.014953074696244326
2018-06-28,-0.018790611057990413
2018-06-29,-0.01591527623178538
2018-07-02,-0.03314567418656413
2018-07-03,-0.027682823397024863
2018-07-04,-0.017937249209465014
2018-07-05,-0.012219260112385288
2018-07-06,-0.01356765093790681
2018-07-09,-0.013386581260236112
2018-07-10,-0.01647981776008531
2018-07-11,-0.01973128299765411
2018-07-12,-0.011142122090223132
2018-07-13,-0.01934490500803117
2018-07-16,-0.02013611008977679
2018-07-17,-0.014206632297403115
2018-07-18,-0.012091601037755802
2018-07-19,-0.016639437212816403
2018-07-20,-0.018916560657282498
2018-07-23,-0.006679334185923563
2018-07-24,0.0003235561174238233
2018-07-25,0.005352383335261807
2018-07-26,0.007875728783478614
2018-07-27,0.004536201372083805
2018-07-30,0.015081565376372823
2018-07-31,0.01461020029157295
2018-08-01,0.0142324363651766
2018-08-02,0.013526632234631068
2018-08-03,0.008363356891524103
2018-08-06,0.004127725812138978
2018-08-07,0.01292897435799609
2018-08-08,0.01493144917103606
2018-08-09,0.013415739894632163
2018-08-10,0.009008792900363358
2018-08-13,0.0062035742351749315
2018-08-14,0.0073066714599151344
2018-08-15,0.007780951622877563
2018-08-16,0.004013715259141376
2018-08-17,-0.002015474417893695
2018-08-20,0.0019494255479432128
2018-08-21,-0.00330485893911806
2018-08-22,-0.01071472718740243
2018-08-23,-0.010986239298275231
2018-08-24,-0.004813239663158243
2018-08-27,-0.003064442640739219
2018-08-28,-0.0019661267496901553
2018-08-29,-0.00523465865713209
2018-08-30,-0.004058005549876136
2018-08-31,0.006196039170844851
2018-09-03,0.007616066446645119
2018-09-04,0.0034391275472550643
2018-09-05,0.015306754504191125
2018-09-06,0.01189075229661879
2018-09-07,0.016595427384502676
2018-09-10,0.012466615688384544
2018-09-11,0.0034214381458589974
2018-09-12,0.015957117505472185
2018-09-13,0.01114334866532412
2018-09-14,0.013577401628627115
2018-09-17,0.006493154871602196
2018-09-18,0.005098334194868194
2018-09-19,0.003264066430317604
2018-09-20,0.0043611447698762296
2018-09-21,0.006045269731830102
2018-09-25,-0.005636503817732036
2018-09-26,-0.005871114902057155
2018-09-27,-0.008754588304786329
2018-09-28,-0.003912445737355642
2018-10-08,-0.009469017473268199
2018-10-09,-0.015066448928073854
2018-10-10,-0.00847892931600627
2018-10-11,-0.022291100618008253
2018-10-12,-0.027789396841616743
2018-10-15,-0.028468204446294554
2018-10-16,-0.041874242323564556
2018-10-17,-0.034048023902155694
2018-10-18,-0.060468941351821986
2018-10-19,-0.05484339415232953
2018-10-22,-0.05136469460211975
2018-10-23,-0.025880121943360507
2018-10-24,-0.024959192477425198
2018-10-25,-0.025645150066166862
2018-10-26,-0.012826488130470968
2018-10-29,-0.00545751244287385
2018-10-30,-0.0069724282444371
2018-10-31,-0.014028012520455548
2018-11-01,-0.007023070049640496
2018-11-02,-0.00959606966829496
2018-11-05,-0.004310846476761284
2018-11-06,0.0003664882359162968
2018-11-07,0.005069062196896028
2018-11-08,0.0032035628092870745
2018-11-09,0.004130109095490038
2018-11-12,0.005185001543416319
2018-11-13,0.006327770311465591
2018-11-14,0.009190571387712305
2018-11-15,0.01247662893790153
2018-11-16,0.01680089095978878
2018-11-19,0.012521368828135652
2018-11-20,0.006978816224108224
2018-11-21,0.0120561921197034
2018-11-22,0.004128192158620883
2018-11-23,0.0037230050259366675
2018-11-26,0.004686307398862336
2018-11-27,0.006142238277520223
2018-11-28,0.00305399054128256
2018-11-29,0.0016608339675059994
2018-11-30,0.006342980745094914
2018-12-03,0.010106068475642674
2018-12-04,0.007431916501102184
2018-12-05,0.006404524019115711
2018-12-06,0.004261364734978252
2018-12-07,0.0048087365188012945
2018-12-10,0.009110910722371262
2018-12-11,0.009890812340749195
2018-12-12,0.011449427620274524
2018-12-13,0.010391810137905137
2018-12-14,0.00806221155980033
2018-12-17,0.009302517917890097
2018-12-18,0.009494837199261977
2018-12-19,0.002370135462460534
2018-12-20,0.004466398941964433
2018-12-21,-0.002034277236655429
2018-12-24,0.0001765499900871631
2018-12-25,0.0009528287043242996
2018-12-26,0.004733819911915724
2018-12-27,-0.0006400912021218147
2018-12-28,0.003375668069527285
2019-01-02,0.006572053887279057
2019-01-03,0.008809217430123133
2019-01-04,0.009233585483586146
2019-01-07,0.010789030677604033
2019-01-08,0.008916283097139606
2019-01-09,-0.005882633396860251
2019-01-10,-0.0013328052721724853
2019-01-11,0.0001337804831381198
2019-01-14,-0.01417438886425304
2019-01-15,-0.0023700067127845476
2019-01-16,0.0018932400204897393
2019-01-17,-0.0056167541833465895
2019-01-18,-0.011842878384051694
2019-01-21,-0.011350130799252844
2019-01-22,-0.028112629470671835
2019-01-23,-0.024792623299146152
2019-01-24,-0.03289797661637042
2019-01-25,-0.05033866295361425
2019-01-28,-0.04694312984291213
2019-01-29,-0.05193291703672889
2019-01-30,-0.06903406319760899
2019-01-31,-0.07755494136827079
2019-02-01,-0.05196335850137729
2019-02-11,-0.029917444266552073
2019-02-12,-0.04396061994102442
2019-02-13,-0.02202257503266361
2019-02-14,-0.021522118603258297
2019-02-15,-0.021697057945004913
2019-02-18,-0.014603214917426194
2019-02-19,-0.01543028737005038
2019-02-20,-0.01378017972646503
2019-02-21,-0.024996235278897855
2019-02-22,-0.010631922053414414
2019-02-25,-0.01263784245013453
2019-02-26,-0.0076007371698594076
2019-02-27,-0.007160350373706735
2019-02-28,0.0027492008546092447
2019-03-01,0.0018139897608341199
2019-03-04,-0.0017742140048450095
2019-03-05,-0.007685470234876382
2019-03-06,-0.005639834354345494
2019-03-07,-0.006128243578367075
2019-03-08,-0.0075549762256043596
2019-03-11,-0.011273366215348135
2019-03-12,-0.005628335187337047
2019-03-13,-0.001339156761453908
2019-03-14,0.002708692214605027
2019-03-15,-0.00041496335545108953
2019-03-18,0.006344530597761654
2019-03-19,0.002528929748644118
2019-03-20,0.0014282319322899903
2019-03-21,-0.0004053850955762356
2019-03-22,-0.005859326054797304
2019-03-25,-0.00047421398973827855
2019-03-26,-0.004355646930149996
2019-03-27,-0.0023895501810888564
2019-03-28,-0.0010746616194547698
2019-03-29,-0.007383665514655385
2019-04-01,-0.0007299471471014334
2019-04-02,-0.015757132497887488
2019-04-03,0.0021486532726250895
2019-04-04,-0.010361961374104944
2019-04-08,0.006872184462013098
2019-04-09,0.00884994508705468
2019-04-10,0.012430508150509167
2019-04-11,0.016716640287430043
2019-04-12,0.018138933633091464
2019-04-15,0.01344585744602931
2019-04-16,0.006637086739321563
2019-04-17,0.00934735559846367
2019-04-18,0.010150667842093217
2019-04-19,0.0029335209288138403
2019-04-22,0.012224253375987287
2019-04-23,0.005357471821118481
2019-04-24,0.013408189342219476
2019-04-25,0.013133235721459531
2019-04-26,0.014687531488897614
2019-04-29,0.00641948794428901
2019-04-30,0.00777069665237589
2019-05-06,0.01441367473594947
2019-05-07,0.013910673844220605
2019-05-08,0.011269709954730665
2019-05-09,0.0028618043736327453
2019-05-10,-0.007746332461975383
2019-05-13,-0.0018163398777585188
2019-05-14,-0.0005071619993400195
2019-05-15,-0.0014714956103388105
2019-05-16,0.0018681578828577752
2019-05-17,-0.004524893902045035
2019-05-20,-0.003325388318254366
2019-05-21,-0.0040626035328172865
2019-05-22,-0.0028355227983226233
2019-05-23,-0.007146320108224469
2019-05-24,-0.005873256219580444
2019-05-27,-0.006451408818720562
2019-05-28,-0.0058978436842733115
2019-05-29,-0.00934200410082281
2019-05-30,-0.0012527219959432428
2019-05-31,0.0022021916800584462
2019-06-03,-0.008968065334702222
2019-06-04,-0.011531316462161795
2019-06-05,-0.010460044335789072
2019-06-06,-0.00748975851684873
2019-06-10,0.0027391023456388303
2019-06-11,0.0019800309523905282
2019-06-12,0.007343525969006615
2019-06-13,0.005585459693095707
2019-06-14,-0.00010378599960986917
2019-06-17,0.003307112690346045
2019-06-18,-5.4237334339131416e-05
2019-06-19,0.009322740864509401
2019-06-20,0.0069708738812123226
2019-06-21,0.008527865911127492
2019-06-24,0.015619911458132539
2019-06-25,0.009293532055119055
2019-06-26,0.008426001865254974
2019-06-27,0.008303890491045839
2019-06-28,0.002086594774406524
2019-07-01,0.0032658331965688594
2019-07-02,0.00653197829459411
2019-07-03,0.017431808811990586
2019-07-04,0.012509065428864518
2019-07-05,0.010495025326310931
2019-07-08,0.004502853466808334
2019-07-09,0.01633240232594186
2019-07-10,0.004558756032695829
2019-07-11,0.006290574772472721
2019-07-12,-0.0013313928719811755
2019-07-15,0.003155971944149613
2019-07-16,0.0067258034944649575
2019-07-17,0.0081824582494886
2019-07-18,0.0066918531003655555
2019-07-19,0.015623252208797036
2019-07-22,0.0059001885156165414
2019-07-23,0.009832880848305341
2019-07-24,0.008289580660482607
2019-07-25,0.007240220112413574
2019-07-26,0.005694110867891714
2019-07-29,0.0066813369423541075
2019-07-30,0.0032740305825995878
2019-07-31,-0.0009506772076873049
2019-08-01,-0.0004955618296469807
2019-08-02,0.0005871434711424029
2019-08-05,-0.001993124152721154
2019-08-06,-0.010188840933772383
2019-08-07,-0.005670787061428283
2019-08-08,-0.012023876908671245
2019-08-09,-0.013220950397816032
2019-08-12,-0.029210386702834414
2019-08-13,-0.02315024020532512
2019-08-14,-0.024025329906128177
2019-08-15,-0.03281112752788834
2019-08-16,-0.02842063520311547
2019-08-19,-0.016662669336818276
2019-08-20,-0.009434083230606745
2019-08-21,-0.016050840844513973
2019-08-22,-0.013950071701429496
2019-08-23,-0.01352404302064911
2019-08-26,-0.02039831500888685
2019-08-27,-0.007739912426812823
2019-08-28,-0.006640665352240621
2019-08-29,-0.00345258060206443
2019-08-30,-0.0038139636753156073
2019-09-02,0.001298811342636693
2019-09-03,-0.001806373283067004
2019-09-04,0.0012871566632212564
2019-09-05,0.0007806463392684921
2019-09-06,0.0002638217471615191
2019-09-09,-0.002848205229303657
2019-09-10,-0.0027704409696819813
2019-09-11,0.004367229920780957
2019-09-12,0.0016307508945534177
2019-09-16,-0.000994675464389895
2019-09-17,-0.0026115509306217158
2019-09-18,-0.0042486316741396635
2019-09-19,-0.003923102136765675
2019-09-20,-0.005647420478566555
2019-09-23,-0.005697365800605724
2019-09-24,-0.007538567241728333
2019-09-25,0.0023227576352596382
2019-09-26,-0.0005014281676661292
2019-09-27,-0.0019589606492610625
2019-09-30,0.0002927892216111061
2019-10-08,0.0002706220809176284
2019-10-09,-0.0029549040683418994
2019-10-10,0.0002454369668106887
2019-10-11,0.006176107547605952
2019-10-14,0.009194957951810414
2019-10-15,0.01186438586965902
2019-10-16,0.01910312413952183
2019-10-17,0.019593262944058654
2019-10-18,0.02176281959250074
2019-10-21,0.012831316811837204
2019-10-22,0.01022336996269739
2019-10-23,0.008482105570883917
2019-10-24,0.00579027571392079
2019-10-25,-0.0032742282627471983
2019-10-28,-0.007217638028924552
2019-10-29,-0.010541361568086256
2019-10-30,-0.009127894991725548
2019-10-31,-0.008090826778098352
2019-11-01,-0.011661777902114541
2019-11-04,-0.013008776479398992
2019-11-05,-0.006262508449964507
2019-11-06,-0.005058267451834533
2019-11-07,-0.004967087789517604
2019-11-08,-0.003209194460650018
2019-11-11,-0.010164243220040408
2019-11-12,-0.010700791273172118
2019-11-13,-0.013243431084823657
2019-11-14,-0.00964588346968339
2019-11-15,-0.015292533967871377
2019-11-18,-0.01724139337122144
2019-11-19,-0.00778350092232321
2019-11-20,-0.002361734186415894
2019-11-21,-0.006726442131547765
2019-11-22,0.002151020124380912
2019-11-25,0.016302921191025152
2019-11-26,0.01036150938063865
2019-11-27,0.010782881147211196
2019-11-28,0.003810581809585205
2019-11-29,-0.0008654002667510888
2019-12-02,-0.007593214297373814
2019-12-03,-0.009960101835013314
2019-12-04,-0.009129162020415943
2019-12-05,-0.017208913732198496
2019-12-06,-0.025038463723246106
2019-12-09,-0.01877960060443127
2019-12-10,-0.018640271105455908
2019-12-11,-0.007317994446770927
2019-12-12,-0.009108202806113241
2019-12-13,-0.005216105210413026
2019-12-16,-0.00551811155405478
2019-12-17,0.0070013798156067925
2019-12-18,0.007281908142916193
2019-12-19,0.013919519923465226
2019-12-20,0.02413918217185438
2019-12-23,0.035453327844236895
2019-12-24,0.047503279043503516
2019-12-25,0.04138237312477914
2019-12-26,0.058983662604124465
2019-12-27,0.060501609834250014
2019-12-30,0.05036040667964701
2019-12-31,0.0547402995373703
2020-01-02,0.052743029690635206
2020-01-03,0.044797711497525955
2020-01-06,0.04462565440792549
2020-01-07,0.05336431116750684
2020-01-08,0.06535706141243859
2020-01-09,0.06895448013024486
2020-01-10,0.05829004485237467
2020-01-13,0.06122967402498661
2020-01-14,0.06671325127451044
2020-01-15,0.05744926855576354
2020-01-16,0.06081469530726934
2020-01-17,0.07168598421132041
2020-01-20,0.08402417645877355
2020-01-21,0.0688580516987196
2020-01-22,0.051131263151131444
2020-01-23,0.05147964884616035
2020-02-03,0.029729497425757548
2020-02-04,0.019568069274286268
2020-02-05,0.023297728122228738
2020-02-06,0.02425126951097417
2020-02-07,0.025496145558799085
2020-02-10,0.03374262921372581
2020-02-11,0.032086129338210645
2020-02-12,0.03367806437607912
2020-02-13,0.03513618999284918
2020-02-14,0.052368121640091234
2020-02-17,0.04421031492619709
2020-02-18,0.03882048082403684
2020-02-19,0.047984782515633415
2020-02-20,0.05349905709890869
2020-02-21,0.034936378686691485
2020-02-24,0.016807557656479385
2020-02-25,-0.007064431754296344
2020-02-26,-0.0006257520660788024
2020-02-27,0.0031552156583863067
2020-02-28,-0.0014659461993291878
2020-03-02,-0.01059961770130935
2020-03-03,-0.020070276342873256
2020-03-04,-0.007961250995442759
2020-03-05,0.003939432982413477
2020-03-06,0.002126890716140681
2020-03-09,0.01090723991998211
2020-03-10,0.0021982552055131444
2020-03-11,0.00405223633599195
2020-03-12,-0.015043317238279084
2020-03-13,-0.029690227816723362
2020-03-16,-0.007653496803580411
2020-03-17,-0.008548389772197833
2020-03-18,-0.0043487090360303515
2020-03-19,-0.01346643993427938
2020-03-20,0.002725837307561353
2020-03-23,0.014037574316233425
2020-03-24,0.024685740413661016
2020-03-25,0.02251420418881683
2020-03-26,0.018733488165330645
2020-03-27,0.025589859682848482
2020-03-30,0.04371107870087732
2020-03-31,0.03701024631661711
2020-04-01,0.033930525565423586
2020-04-02,0.026118194664213917
2020-04-03,0.025278493355199917
2020-04-07,0.026776400468291356
2020-04-08,0.024544250254459225
2020-04-09,0.02533925339609745
2020-04-10,0.029712503209160298
2020-04-13,0.043688870681072606
2020-04-14,0.044870404073998754
2020-04-15,0.03651281836041839
2020-04-16,0.03365745947228431
2020-04-17,0.034193843331679394
2020-04-20,0.028082764988411398
2020-04-21,0.029845581029061034
2020-04-22,0.02493236312944566
2020-04-23,0.028806769392107585
2020-04-24,0.021095093941384896
2020-04-27,0.013455641418494096
2020-04-28,0.009488362932077716
2020-04-29,0.011564541521210631
2020-04-30,0.011610689423905135
2020-05-06,0.004855577535277485
2020-05-07,0.003939819736680514
2020-05-08,0.00799037877034683
2020-05-11,0.01049465767495955
2020-05-12,0.0014461823151117256
2020-05-13,0.006302397941138911
2020-05-14,0.006021410079061347
2020-05-15,0.005470795587587273
2020-05-18,0.010781877303712927
2020-05-19,0.002125580043134262
2020-05-20,0.007475504313827385
2020-05-21,0.002883713983702251
2020-05-22,0.005889663584308889
2020-05-25,0.01139505333480785
2020-05-26,0.013065335552963311
2020-05-27,0.029315413402172197
2020-05-28,0.02902509791358443
2020-05-29,0.025409779197122742
2020-06-01,0.017610394360506584
2020-06-02,0.007569169688944423
2020-06-03,-0.002206757376661192
2020-06-04,-0.022228627332535417
2020-06-05,-0.007042755255737637
2020-06-08,-0.012780029817196392
2020-06-09,-0.011114160709795623
2020-06-10,0.000618863764433486
2020-06-11,0.007709341828343069
2020-06-12,-0.00487176041571849
2020-06-15,-0.0012315476516781276
2020-06-16,-0.014277923884662133
2020-06-17,-0.01441456102154176
2020-06-18,-0.03637143157142618
2020-06-19,-0.0291349494212802
2020-06-22,-0.045596540048645634
2020-06-23,-0.03742229373816135
2020-06-24,-0.0391526888068993
2020-06-29,-0.04529606202992198
2020-06-30,-0.04259673392804224
2020-07-01,-0.025009260219504142
2020-07-02,-0.01681394742778214
2020-07-03,-0.010408278247581088
2020-07-06,-0.016107250556430138
2020-07-07,-0.016247041983843063
2020-07-08,-0.016354401243734915
2020-07-09,-0.0213890592849341
2020-07-10,-0.030839661146113806
2020-07-13,-0.02687218235803706
2020-07-14,-0.03146123244334839
2020-07-15,-0.02734531212819552
2020-07-16,-0.02045719283169592
2020-07-17,-0.010292761448704064
2020-07-20,-0.008380096735459083
2020-07-21,-0.00695189999829993
2020-07-22,-0.015338230470816203
2020-07-23,-0.016407742955803543
2020-07-24,-0.007079122641331093
2020-07-27,-0.005348583920849928
2020-07-28,-0.00955448649536408
2020-07-29,-0.02488866953179386
2020-07-30,-0.021653241000104018
2020-07-31,-0.023274805192601056
2020-08-03,-0.0334159065809001
2020-08-04,-0.020164186673812267
2020-08-05,-0.02645135685883976
2020-08-06,-0.026401382362071416
2020-08-07,-0.020717426467107388
2020-08-10,-0.025506366535425762
2020-08-11,-0.026996912205235278
2020-08-12,-0.018044823642006744
2020-08-13,-0.023745631608725386
2020-08-14,-0.02284131636744683
2020-08-17,-0.02854579580606851
2020-08-18,-0.022628929011391692
2020-08-19,-0.01597471666357594
2020-08-20,-0.009859392056105086
2020-08-21,-0.014264136699096652
2020-08-24,-0.011337936175210539
2020-08-25,-0.003306573623158768
2020-08-26,0.002587514289551047
2020-08-27,-0.003027035328693615
2020-08-28,-0.0072557900075669035
2020-08-31,-0.01541264842936229
2020-09-01,-0.009115089372430815
2020-09-02,-0.009491134057328973
2020-09-03,-0.010797307487342263
2020-09-04,0.0019247991843909002
2020-09-07,0.015241374155751563
2020-09-08,0.018906692488639316
2020-09-09,0.030458353658792604
2020-09-10,0.02217903656153497
2020-09-11,0.013191015209066032
2020-09-14,0.021858998984817406
2020-09-15,0.012956185668333625
2020-09-16,0.021312222521958746
2020-09-17,0.007578123526212784
2020-09-18,0.007901784288229503
2020-09-21,0.011898209897789887
2020-09-22,0.012296289709078442
2020-09-23,0.015093331665147276
2020-09-24,0.010150274201489536
2020-09-25,0.0020862209692316842
2020-09-28,0.007711684369448555
2020-09-29,-0.006320138630583342
2020-09-30,-0.013413968061277565
2020-10-09,-0.012558145666974253
2020-10-12,-0.012654256234518421
2020-10-13,-0.021825439855233362
2020-10-14,-0.03709152181269378
2020-10-15,-0.037458880559336535
2020-10-16,-0.0323910066349473
2020-10-19,-0.04835339286315092
2020-10-20,-0.052456114495048625
2020-10-21,-0.0501361673605748
2020-10-22,-0.051555970693136485
2020-10-23,-0.04098051287665361
2020-10-26,-0.05322319861884371
2020-10-27,-0.06802960574819096
2020-10-28,-0.0670497736581237
2020-10-29,-0.07266068169468638
2020-10-30,-0.07794092088824353
2020-11-02,-0.07596925657427292
2020-11-03,-0.059007142576771185
2020-11-04,-0.05734686840135907
2020-11-05,-0.04445526714957042
2020-11-06,-0.030541590863515808
2020-11-09,-0.029528856346339838
2020-11-10,-0.02040246460318445
2020-11-11,-0.008047144989181966
2020-11-12,-0.008314587718994062
2020-11-13,-0.006565583935209436
2020-11-16,0.006769514678156961
2020-11-17,0.0072877659575930655
2020-11-18,0.01516094306127627
2020-11-19,0.00934763426623271
2020-11-20,0.010276331622584265
2020-11-23,0.01701777082792914
2020-11-24,0.02971295629866858
2020-11-25,0.029389042148313085
2020-11-26,0.028628225851546826
2020-11-27,0.035072435829093945
2020-11-30,0.03281950071049873
2020-12-01,0.022996282185652184
2020-12-02,0.01270768186369349
2020-12-03,0.01346138176821314
2020-12-04,0.012980789671288103
2020-12-07,0.027362962223854218
2020-12-08,0.019922158529845156
2020-12-09,0.022230382227332993
2020-12-10,0.025867700105596414
2020-12-11,0.023102915601476773
2020-12-14,0.02193392194146259
2020-12-15,0.019447839387655257
2020-12-16,0.006535225781035388
2020-12-17,0.004275679863757077
2020-12-18,0.006413285133362222
2020-12-21,-0.02130417085429674
2020-12-22,-0.014276237607084241
2020-12-23,-0.00847322593682144
2020-12-24,-0.0036812422861407512
2020-12-25,-0.001418055115544839
2020-12-28,-0.006594349038549788
2020-12-29,-0.0002133925562953498
2020-12-30,0.0028098354595604835
2020-12-31,0.006663512418787202
2021-01-04,-0.00544089166591509
2021-01-05,-0.01252345372545599
2021-01-06,-0.014460393761268512
2021-01-07,-0.019169987722753308
2021-01-08,-0.014070870920639938
2021-01-11,-0.003975124308323706
2021-01-12,0.00128221320507463
2021-01-13,0.013601350101907845
2021-01-14,0.006358230051239054
2021-01-15,-0.004445917396136419
2021-01-18,-0.032706752192469137
2021-01-19,-0.01501646795508922
2021-01-20,-0.03708605324905508
2021-01-21,-0.05459050064878991
2021-01-22,-0.05596642089724041
2021-01-25,-0.06637327372572734
2021-01-26,-0.061417511886507736
2021-01-27,-0.056212475878784626
2021-01-28,-0.0677880010150383
2021-01-29,-0.06931293472818234
2021-02-01,-0.09224990136843067
2021-02-02,-0.11345283681669519
2021-02-03,-0.09405523914947779
2021-02-04,-0.10171704035623856
2021-02-05,-0.102663203228161
2021-02-08,-0.11667094147316603
2021-02-09,-0.11671205800176859
2021-02-10,-0.1144444087268518
2021-02-18,-0.0859834538728505
2021-02-19,-0.07553981545588556
2021-02-22,-0.0644894889716945
2021-02-23,-0.05731288723472267
2021-02-24,-0.04082029224708122
2021-02-25,-0.02636601999904794
2021-02-26,-0.02739466687814692
2021-03-01,-0.027801813434717455
2021-03-02,-0.010307570266569522
2021-03-03,-0.01039566570933953
2021-03-04,-0.001570553508231473
2021-03-05,0.000890782837837608
2021-03-08,0.009026079376619391
2021-03-09,0.005730040588276225
2021-03-10,-0.0023041768652531207
2021-03-11,-0.004422120418038369
2021-03-12,-0.008205549284050147
2021-03-15,0.008530797430217826
2021-03-16,0.009020284889297132
2021-03-17,0.008638579694578511
2021-03-18,-0.0024657309886542823
2021-03-19,0.00937001100810423
2021-03-22,0.01613800089858253
2021-03-23,0.020498782994992838
2021-03-24,0.019037222732989544
2021-03-25,0.0277164466528195
2021-03-26,0.022321512459998496
2021-03-29,0.03038787843816663
2021-03-30,0.026115083040747496
2021-03-31,0.023162661820348648
2021-04-01,0.023574615671999186
2021-04-02,0.013066835334987727
2021-04-06,0.014234359255730486
2021-04-07,0.02550343369499728
2021-04-08,0.014842509195142359
2021-04-09,0.01891361860258385
2021-04-12,0.01706566577114888
2021-04-13,0.017764490025933884
2021-04-14,0.0259106364633127
2021-04-15,0.027860418055581815
2021-04-16,0.04135525560679265
2021-04-19,0.038367818551696374
2021-04-20,0.035184976323443
2021-04-21,0.0325561523633311
2021-04-22,0.03390306226202314
2021-04-23,0.022334507764331525
2021-04-26,0.03067449753434336
2021-04-27,0.02313032731233567
2021-04-28,0.027913667480390397
2021-04-29,0.029173150939110614
2021-04-30,0.014593659180354112
2021-05-06,0.0164742502727242
2021-05-07,0.02869726841503716
2021-05-10,0.01777926199860108
2021-05-11,0.009747973495488726
2021-05-12,0.0059567613676745
2021-05-13,0.002678261078182302
2021-05-14,0.003332084593103215
2021-05-17,0.0006124054935019926
2021-05-18,-0.0038120902183240773
2021-05-19,0.004337336005294219
2021-05-20,0.0068868337263334155
2021-05-21,0.002567945226335454
2021-05-24,0.009417809297680957
2021-05-25,0.0062777349536625345
2021-05-26,0.0067957834127714304
2021-05-27,0.010471799243166043
2021-05-28,0.009485801102341576
2021-05-31,0.009607768906992331
2021-06-01,0.01817813961342574
2021-06-02,0.028287848326173554
2021-06-03,0.021260830741314816
2021-06-04,0.021201786145825966
2021-06-07,0.017450083562702653
2021-06-08,0.031460666768231796
2021-06-09,0.03537047955674043
2021-06-10,0.02471126691756994
2021-06-11,0.03632712098842717
2021-06-15,0.02938379356626697
2021-06-16,0.04414483403266861
2021-06-17,0.038690917847652356
2021-06-18,0.032141464818712245
2021-06-21,0.03393428102493748
2021-06-22,0.042381598242599273
2021-06-23,0.055347818611795
2021-06-24,0.05066483431680211
2021-06-25,0.04712660667131856
2021-06-28,0.045429691830766006
2021-06-29,0.05376590832697878
2021-06-30,0.049116080156154485
2021-07-01,0.05596295386114464
2021-07-02,0.06712141352796844
2021-07-05,0.04904755654032486
2021-07-06,0.04842551486324265
2021-07-07,0.044242389935387386
2021-07-08,0.041039215176878
2021-07-09,0.032957307458727
2021-07-12,0.02171413554212437
2021-07-13,0.028944960529555006
2021-07-14,0.02186322694897726
2021-07-15,0.019869981752305692
2021-07-16,0.025602807160864098
2021-07-19,0.016110993976070125
2021-07-20,0.00761823352252303
2021-07-21,-0.008176707101449115
2021-07-22,0.016900388395114634
2021-07-23,0.015017712476467
2021-07-26,0.011582959073720086
2021-07-27,0.018233229466562324
2021-07-28,0.015710667140272153
2021-07-29,-0.0002134039947822644
2021-07-30,-0.001998507991470156
2021-08-02,0.011369717023120559
2021-08-03,0.009892771278461335
2021-08-04,-0.026099316416242087
2021-08-05,-0.03227525156607394
2021-08-06,-0.052186665064357984
2021-08-09,-0.02901344154982987
2021-08-10,-0.024884164114339965
2021-08-11,-0.028736620902601824
2021-08-12,-0.024888628965700783
2021-08-13,-0.020517727298295034
2021-08-16,-0.009991616032619152
2021-08-17,0.0045156475851681616
2021-08-18,0.011138178156548474
2021-08-19,-0.0068198641025577905
2021-08-20,-0.010448166240726142
2021-08-23,-0.018772184992093106
2021-08-24,-0.022506060350557154
2021-08-25,-0.01964018242297952
2021-08-26,-0.028633380613533245
2021-08-27,-0.03233139280545779
2021-08-30,-0.04111910069472108
2021-08-31,-0.026813311459334285
2021-09-01,-0.015070026604740407
2021-09-02,-0.018026401294963718
2021-09-03,-0.00890555057582536
2021-09-06,-0.008466063055299542
2021-09-07,-0.009194039440948393
2021-09-08,0.0046242998928932265
2021-09-09,-0.0069615526435084195
2021-09-10,-0.01665634401422563
2021-09-13,-0.019176333899939488
2021-09-14,-0.018509197705392527
2021-09-15,-0.0362640695870468
2021-09-16,-0.01996122868350917
2021-09-17,-0.00705053444575405
2021-09-22,-0.019523843638446062
2021-09-23,-0.026402873925596624
2021-09-24,-0.020261393190359283
2021-09-27,-0.013423138378287718
2021-09-28,-0.020183200461627672
2021-09-29,-0.015404773527017149
2021-09-30,-0.01738752350857597
2021-10-08,-0.016900345242324866
2021-10-11,-0.00645629505634736
2021-10-12,-0.0017510298564117777
2021-10-13,-0.008560731992016023
2021-10-14,-0.008840158831818209
2021-10-15,-0.010781641814376871
2021-10-18,-0.030049783982455513
2021-10-19,-0.029368210020950497
2021-10-20,-0.024259209334544958
2021-10-21,-0.015549660692998686
2021-10-22,-0.007176468129953399
2021-10-25,-0.0063263733397576245
2021-10-26,-0.008920149329744366
2021-10-27,-0.012992436853052548
2021-10-28,-0.0038160800691535365
2021-10-29,0.008151180382070617
2021-11-01,0.01574952368864354
2021-11-02,0.02465904195211436
2021-11-03,0.020085688097141324
2021-11-04,0.019811408056888028
2021-11-05,0.026447534183671934
2021-11-08,0.019497290246497948
2021-11-09,0.006605901194183602
2021-11-10,0.013730828230683122
2021-11-11,0.010741939941630203
2021-11-12,0.016179063191459328
2021-11-15,0.023922154043390088
2021-11-16,0.03431328586454946
2021-11-17,0.032609113064389156
2021-11-18,0.023344467799660276
2021-11-19,0.022694369003313883
2021-11-22,0.005864898606905845
2021-11-23,0.005735315255666248
2021-11-24,0.008618411613514789
2021-11-25,0.007793771815277464
2021-11-26,-0.011823419494660942
2021-11-29,-0.012689562538823012
2021-11-30,-0.02031301163255913
2021-12-01,-0.02294987412453575
2021-12-02,-0.014231942495498247
2021-12-03,-0.014984914574185734
2021-12-06,-0.020204945463698228
2021-12-07,-0.01688786347194132
2021-12-08,-0.00482022516700345
2021-12-09,-0.008644002057542705
2021-12-10,-0.012924520688586818
2021-12-13,-0.023255987599264623
2021-12-14,-0.023928596998323184
2021-12-15,-0.02967161633043093
2021-12-16,-0.026512250570830682
2021-12-17,-0.025992718442597974
2021-12-20,-0.02636896658884872
2021-12-21,-0.02008739978961896
2021-12-22,-0.030189988258209715
2021-12-23,-0.030399920155337466
2021-12-24,-0.01988699971150635
2021-12-27,-0.013232526331175255
2021-12-28,-0.01436103788403266
2021-12-29,-0.012934123304451102
2021-12-30,-0.02100521169794623
2021-12-31,-0.01946061492960633
2022-01-04,-0.031806714377941504
2022-01-05,-0.025157126885464905
2022-01-06,-0.03916017562704123
2022-01-07,-0.020366978361324693
2022-01-10,-0.01439271564763233
2022-01-11,-0.004158451062501761
2022-01-12,-0.006067521744538118
2022-01-13,-0.00022160225185761245
2022-01-14,-0.008006674667291526
2022-01-17,-0.008908989808475334
2022-01-18,0.0020047866139692033
2022-01-19,0.008902203545865649
2022-01-20,0.026544178126843745
2022-01-21,0.028485936675503535
2022-01-24,0.025203016795921452
2022-01-25,0.019875772133186562
2022-01-26,0.022542715773974806
2022-01-27,0.016611820774798138
2022-01-28,0.02281467552984875
2022-02-07,0.039145313590781335
2022-02-08,0.05653412384697577
2022-02-09,0.057392250602246515
2022-02-10,0.05891818416436709
2022-02-11,0.05740036866664111
2022-02-14,0.06166553772708143
2022-02-15,0.07929124760495262
2022-02-16,0.07362589194177867
2022-02-17,0.05885656731032456
2022-02-18,0.05373704263222565
2022-02-21,0.05016300531222816
2022-02-22,0.038568876232103734
2022-02-23,0.028168563805426677
2022-02-24,0.016404078577426158
2022-02-25,0.03490422399973357
2022-02-28,0.030187993052635087
2022-03-01,0.0276155050774249
2022-03-02,0.021483580925956904
2022-03-03,0.01823482519664829
2022-03-04,0.011253808706386814
2022-03-07,-0.00722669508006692
2022-03-08,-0.013354833840322149
2022-03-09,-0.020854656350516074
2022-03-10,-0.012233076868683728
2022-03-11,-0.017413660313225506
2022-03-14,-0.024393778027187087
2022-03-15,-0.03777869248148981
2022-03-16,-0.012304485764999429
2022-03-17,0.011567482076014182
2022-03-18,0.01983957334747787
2022-03-21,0.01425847057796286
2022-03-22,0.025551686962068318
2022-03-23,0.03519350523955544
2022-03-24,0.040830742594705774
2022-03-25,0.029968878347255645
2022-03-28,0.02206361563001455
2022-03-29,0.03088505082619679
2022-03-30,0.02503341334641524
2022-03-31,0.02071951664170974
2022-04-01,0.0215496361294482
2022-04-06,0.021855022057924223
2022-04-07,0.015975320187545633
2022-04-08,0.010366638986547022
2022-04-11,-0.0014163203819808831
2022-04-12,0.006682017037561654
2022-04-13,0.0036271746671793156
2022-04-14,-0.0011581137041552364
2022-04-15,-0.003026793848616635
2022-04-18,0.0007742608182099951
2022-04-19,-0.016961658910992952
2022-04-20,-0.0054979507531945195
2022-04-21,0.0008817610540294346
2022-04-22,0.0009291276184406698
2022-04-25,0.009847275561639841
2022-04-26,0.01781558757059317
2022-04-27,0.007426600431457972
2022-04-28,-0.0004126869058744889
2022-04-29,0.011999518238628357
2022-05-05,0.01458388375352412
2022-05-06,0.0027733073148448195
2022-05-09,-0.013107762108601206
2022-05-10,-0.029429977362964765
2022-05-11,-0.01393445949146583
2022-05-12,-0.013921139931078894
2022-05-13,0.003270234321449024
2022-05-16,0.0037388349681859168
2022-05-17,0.0015908009930621567
2022-05-18,-0.00011123425943885407
2022-05-19,-0.005530039741598353
2022-05-20,-0.0009095994324695364
2022-05-23,-0.0074146697734582614
2022-05-24,-0.009018929680100221
2022-05-25,-0.00531654540272751
2022-05-26,-0.013383995894057824
2022-05-27,-0.0023416212839337675
2022-05-30,0.011372296025349352
2022-05-31,-0.0029553497002521717
2022-06-01,0.00016994881587982513
2022-06-02,-0.0007171623491106227
2022-06-06,-0.004461095194046916
2022-06-07,0.0005328752042119481
2022-06-08,0.024607866424781213
2022-06-09,0.04059774100839677
2022-06-10,0.02505951510234219
2022-06-13,0.005293577861426837
2022-06-14,0.0016306528115418214
2022-06-15,0.017627493525025306
2022-06-16,0.020292938955468104
2022-06-17,0.02830161876337125
2022-06-20,0.02425928811794303
2022-06-21,0.02652322055306596
2022-06-22,0.01716729137058016
2022-06-23,0.00924440457217724
2022-06-24,0.010102120601330651
2022-06-27,0.011589344889658626
2022-06-28,0.006660643920032343
2022-06-29,0.019571006360920372
2022-06-30,0.013397718894424052
2022-07-01,0.005876524448288373
2022-07-04,0.00519803039144176
2022-07-05,0.009816288277408866
2022-07-06,0.004926056715599467
2022-07-07,-0.005390395372936799
2022-07-08,-0.00514104611452763
2022-07-11,9.421191990292149e-05
2022-07-12,0.011554214678880886
2022-07-13,0.009034107527561636
2022-07-14,-0.008214061097451032
2022-07-15,-0.021790479930711003
2022-07-18,-0.0024475635444838493
2022-07-19,0.009832331775754974
2022-07-20,0.009289159987487031
2022-07-21,0.01746482366959268
2022-07-22,0.010996005836684277
2022-07-25,0.019559920109863446
2022-07-26,0.027841272067215567
2022-07-27,0.013603405221001525
2022-07-28,0.003571179820095541
2022-07-29,-0.0015049206794878539
2022-08-01,-0.007075174496756658
2022-08-02,-0.01512741527949415
2022-08-03,-0.02560109444564755
2022-08-04,-0.015143796845151977
2022-08-05,-0.010544875482168786
2022-08-08,-0.012435635468635731
2022-08-09,-0.015259566374073726
2022-08-10,-0.01112459159838397
2022-08-11,-0.0045685737797829945
2022-08-12,-0.0061217701467774326
2022-08-15,-0.01740577552848687
2022-08-16,-0.020885953728599083
2022-08-17,-0.025509237218851864
2022-08-18,-0.03341638519832093
2022-08-19,-0.018323886370424265
2022-08-22,-0.0274070454992943
2022-08-23,-0.029420325727691224
2022-08-24,-0.02035480380162582
2022-08-25,-0.004795238347852761
2022-08-26,0.007112056376532547
2022-08-29,-0.00030735099039621433
2022-08-30,0.0015169095524478343
2022-08-31,0.018090544076620273
2022-09-01,0.0051135611756727845
2022-09-02,0.0008995050877841776
2022-09-05,0.008814870281391066
2022-09-06,0.005722525794254252
2022-09-07,-0.0036094410601803656
2022-09-08,-0.010366930984230562
2022-09-09,-0.010744680670402892
2022-09-13,-0.0052663861021332095
2022-09-14,-0.003058691665531889
2022-09-15,0.005366239031027564
2022-09-16,0.005936603980431603
2022-09-19,0.017277175637086646
2022-09-20,0.02295410445707001
2022-09-21,0.01167122710167302
2022-09-22,-0.0012082266104455307
2022-09-23,0.01774596427706108
2022-09-26,0.010004307117691416
2022-09-27,0.013842831121467024
2022-09-28,0.007880006214178318
2022-09-29,0.0021930805701986054
2022-09-30,-0.003984288477928154
2022-10-10,-0.016409442057125384
2022-10-11,-0.023050720948500084
2022-10-12,-0.01923827253398242
2022-10-13,-0.018728988432811493
2022-10-14,-0.023425197431186918
2022-10-17,-0.033872599858712514
2022-10-18,-0.036601712478303176
2022-10-19,-0.03775215768568216
2022-10-20,-0.03945402966583349
2022-10-21,-0.04519563925311031
2022-10-24,-0.04831370697839722
2022-10-25,-0.051500828131265976
2022-10-26,-0.055098995142603274
2022-10-27,-0.0421167849489659
2022-10-28,-0.0560954982239641
2022-10-31,-0.05234983465418875
2022-11-01,-0.049347494822831135
2022-11-02,-0.04374855435697901
2022-11-03,-0.042420629948653504
2022-11-04,-0.03126951491486764
2022-11-07,-0.04131930862091385
2022-11-08,-0.03465483291817914
2022-11-09,-0.019303642197558903
2022-11-10,-0.027574529707710037
2022-11-11,-0.017777167934719063
2022-11-14,-0.016442754404831585
2022-11-15,-0.011567267717518509
2022-11-16,-0.009291333075771516
2022-11-17,-0.004199187615708965
2022-11-18,0.0008923217330347021
2022-11-21,0.0026927168020449113
2022-11-22,0.01124680142009283
2022-11-23,0.012041335943935047
2022-11-24,0.00748217204597809
2022-11-25,0.005107745014089249
2022-11-28,0.004251221210899397
2022-11-29,0.0021922120887961465
2022-11-30,0.006971991203187851
2022-12-01,0.013840307570262528
2022-12-02,0.013753136015711676
2022-12-05,0.0068063181525339946
2022-12-06,0.013723270029397376
2022-12-07,0.01408513512490322
2022-12-08,0.006502305521137833
2022-12-09,0.0047018433257856075
2022-12-12,0.0033567507580915153
2022-12-13,0.005312023776335611
2022-12-14,-0.0003885905520823077
2022-12-15,0.005985285801258565
2022-12-16,-0.009170817333215977
2022-12-19,-0.009763099262462265
2022-12-20,-0.008459427353645334
2022-12-21,-0.020528507860255577
2022-12-22,-0.025433288299628515
2022-12-23,-0.02553915748152988
2022-12-26,-0.019218147949362115
2022-12-27,-0.01877990436519096
2022-12-28,-0.02271774053978115
2022-12-29,-0.021074947429247252
2022-12-30,-0.02009205534790697
2023-01-03,-0.01955453396115281
2023-01-04,-0.022317529730151095
2023-01-05,-0.022865050470696688
2023-01-06,-0.023496459803259272
2023-01-09,-0.02341476415055223
2023-01-10,-0.023531499367086477
2023-01-11,-0.029189580793030183
2023-01-12,-0.023933333867594168
2023-01-13,-0.02592969986655569
2023-01-16,-0.027737914291896346
2023-01-17,-0.0319298653989362
2023-01-18,-0.032429907134145834
2023-01-19,-0.028579380788159338
2023-01-20,-0.030271091799053507
2023-01-30,-0.030394322145661668
2023-01-31,-0.027934030819204318
2023-02-01,-0.025116604593619918
2023-02-02,-0.02692050222758347
2023-02-03,-0.023869239017764117
2023-02-06,-0.017639145360320362
2023-02-07,-0.01794689927559047
2023-02-08,-0.016109551759058018
2023-02-09,-0.021600270183744066
2023-02-10,-0.013583274089952534
2023-02-13,-0.014238047461907027
2023-02-14,-0.013003573404551529
2023-02-15,-0.015619177005870302
2023-02-16,-0.019456389845861066
2023-02-17,-0.0036085351153131414
2023-02-20,0.010863724504249835
2023-02-21,0.015508934219335689
2023-02-22,0.011694302786982755
2023-02-23,0.020792049479880795
2023-02-24,0.03591207903727166
2023-02-27,0.043861962684426686
2023-02-28,0.03180209854333639
2023-03-01,0.026704091502661627
2023-03-02,0.027000385192280835
2023-03-03,0.04253535635391591
2023-03-06,0.052696380751075536
2023-03-07,0.05739462818530403
2023-03-08,0.04678456203691585
2023-03-09,0.036272758202462
2023-03-10,0.024673071648768155
2023-03-13,0.025211809408625042
2023-03-14,0.018595068293660054
2023-03-15,0.016260670350435893
2023-03-16,0.02275052523126042
2023-03-17,0.013531991510270854
2023-03-20,0.014994698874284909
2023-03-21,0.01784742518400211
2023-03-22,0.027103704794757072
2023-03-23,0.020728172276737712
2023-03-24,0.02114307664789258
2023-03-27,0.028141086913238467
2023-03-28,0.020412196864265337
2023-03-29,0.011228821747228135
2023-03-30,0.02298158762779035
2023-03-31,0.011559739977718551
2023-04-03,-0.004878287928228971
2023-04-04,-0.006228950690175834
2023-04-06,-0.011577493992186667
2023-04-07,-0.020387856131429957
2023-04-10,-0.009821485374808304
2023-04-11,-0.021928752371221355
2023-04-12,-0.04529136330062215
2023-04-13,-0.041105577464116055
2023-04-14,-0.03902951191550112
2023-04-17,-0.01784992162116097
2023-04-18,-0.01518921403146277
2023-04-19,-0.023973634232819716
2023-04-20,-0.04203992508813119
2023-04-21,-0.028415485149787558
2023-04-24,-0.03409642246698025
2023-04-25,-0.02554888897935547
2023-04-26,-0.005430182085977266
2023-04-27,0.01422187818429655
2023-04-28,0.013009166952718847
2023-05-04,0.013901708175226894
2023-05-05,0.01028963450853004
2023-05-08,0.0024230954843681256
2023-05-09,-0.0043499964253846946
2023-05-10,0.00468345969841746
2023-05-11,0.00253091705152857
2023-05-12,0.01474248735426591
2023-05-15,0.017911265091864907
2023-05-16,0.033288903101816446
2023-05-17,0.02969493925154662
2023-05-18,0.00608026756281662
2023-05-19,0.009672289195981131
2023-05-22,0.027768105673251678
2023-05-23,0.03147246058666607
2023-05-24,0.021859675897935783
2023-05-25,0.014067675314219251
2023-05-26,0.008443732756780557
2023-05-29,0.0012765224160010795
2023-05-30,-0.0011755178145370707
2023-05-31,-0.008781793040449406
2023-06-01,-0.016843812721282263
2023-06-02,-0.005681291707732929
2023-06-05,-0.009586848001987608
2023-06-06,-0.009923432901710518
2023-06-07,-0.01218463096827274
2023-06-08,-0.012532294403709865
2023-06-09,-0.01805493100347196
2023-06-12,-0.019853926325529257
2023-06-13,-0.02720229676323315
2023-06-14,-0.02405834017229862
2023-06-15,-0.010371396598972758
2023-06-16,-0.01904862722114798
2023-06-19,-0.026753812765906666
2023-06-20,-0.03772026636548184
2023-06-21,-0.03571415236377644
2023-06-26,-0.028616669980277013
2023-06-27,-0.0254889008635527
2023-06-28,-0.026153993179357786
2023-06-29,-0.03812464333790021
2023-06-30,-0.04360873052133215
2023-07-03,-0.034007820385800795
2023-07-04,-0.031067262413333498
2023-07-05,-0.025518167306714738
2023-07-06,-0.04014161864697229
2023-07-07,-0.027730007410734118
2023-07-10,-0.019183230956130705
2023-07-11,-0.02174625214547698
2023-07-12,-0.01643251236254668
2023-07-13,-0.011295725535031106
2023-07-14,-0.01885975013808494
2023-07-17,-0.020986052016777796
2023-07-18,-0.013107973452012282
2023-07-19,-0.020103644893576432
2023-07-20,-0.01295749362790629
2023-07-21,-0.011621965619989565
2023-07-24,-0.007765161533220204
2023-07-25,0.006833835137552438
2023-07-26,0.012747766692643159
2023-07-27,0.014759783473304061
2023-07-28,0.008407200986520973
2023-07-31,0.013299625465553008
2023-08-01,0.012547893139107119
2023-08-02,0.011087717946013653
2023-08-03,0.009913443619563742
2023-08-04,0.007730841687669486
2023-08-07,0.007624526747933968
2023-08-08,0.0048429839560094196
2023-08-09,0.007193137574287536
2023-08-10,0.012547496316109255
2023-08-11,0.011913444163513903
2023-08-14,0.011686800575229878
2023-08-15,0.004393345686366311
2023-08-16,0.004759564917333845
2023-08-17,0.007803215811400723
2023-08-18,0.004290940897987929
2023-08-21,-0.00015301614785657655
2023-08-22,-0.010520688186298265
2023-08-23,-0.01168811247040653
2023-08-24,-0.0036167737626708277
2023-08-25,0.0027135830420882663
2023-08-28,-0.00035391504603447463
2023-08-29,4.391978594718571e-06
2023-08-30,-0.006797852470700076
2023-08-31,-0.003258606174768204
2023-09-01,-0.001093793571518148
2023-09-04,0.0022927981623950197
2023-09-05,0.002549233910034962
2023-09-06,-0.00802348544778158
2023-09-07,-0.003331723635205227
2023-09-08,-0.002678482023425313
2023-09-11,-0.0018082265263477636
2023-09-12,0.0012484704244062964
2023-09-13,0.01105956958976901
2023-09-14,0.008983491637187153
2023-09-15,0.0112294399519354
2023-09-18,0.015572768937423473
2023-09-19,0.014098073537676524
2023-09-20,0.014700037421064613
2023-09-21,0.002728604312977341
2023-09-22,0.001635802054238942
2023-09-25,0.007828264821475153
2023-09-26,0.0026977955615589133
2023-09-27,0.0066243539228572935
2023-09-28,0.01053081935090839
2023-10-09,0.010049575791841138
2023-10-10,0.004886980667476136
2023-10-11,0.0103312865563705
2023-10-12,0.011148261808506681
2023-10-13,0.006467827608176617
2023-10-16,0.014037568911933609
2023-10-17,0.015541029507129265
2023-10-18,0.013098645355560563
2023-10-19,0.004269073748628175
2023-10-20,0.007659225408891704
2023-10-23,0.0024237151221399578
2023-10-24,-0.0034684781059433623
2023-10-25,-0.0019619759840870526
2023-10-26,-0.00043544896184522647
2023-10-27,0.004735503030861462
2023-10-30,0.0029460363764813808
2023-10-31,0.003787323850740326
2023-11-01,0.009233681932939703
2023-11-02,0.009243724631999262
2023-11-03,0.011470285013784973
2023-11-06,0.007012828037621252
2023-11-07,0.00109904014316127
2023-11-08,-0.005681937526206451
2023-11-09,-0.001691172180320201
2023-11-10,-0.0033947245003835627
2023-11-13,-0.002312540192015676
2023-11-14,-0.004117051608153913
2023-11-15,-0.0015421097932677222
2023-11-16,0.003989129929856269
2023-11-17,0.0006919192918743503
2023-11-20,-1.8924122204083682e-05
2023-11-21,0.0073023987109105196
2023-11-22,0.0077601659479181115
2023-11-23,0.0066870871811647095
2023-11-24,0.005062295133435445
2023-11-27,-0.0007142820580532602
2023-11-28,-0.0033113556125322213
2023-11-29,-0.006395849529482113
2023-11-30,-0.002434373659004771
2023-12-01,-0.005626060394320131
2023-12-04,-0.011425207206981092
2023-12-05,-0.018614623561657797
2023-12-06,-0.014320913647451135
2023-12-07,-0.019932403125395078
2023-12-08,-0.02231285866498479
2023-12-11,-0.02600167947200851
2023-12-12,-0.023650736731859023
2023-12-13,-0.017209008656934702
2023-12-14,-0.019896028910326546
2023-12-15,-0.016033230208688774
2023-12-18,-0.013695658919667484
2023-12-19,-0.014925138424830668
2023-12-20,-0.007563979309396136
2023-12-21,-0.005185510789272714
2023-12-22,-0.00494960584282704
2023-12-25,0.0015868907163020807
2023-12-26,-0.0007706073026081048
2023-12-27,-0.008524798487368524
2023-12-28,-0.006268738799198807
2023-12-29,-0.01971965780103608
2024-01-02,-0.016572145212684103
2024-01-03,-0.022442214772740755
2024-01-04,-0.01855158009296517
2024-01-05,-0.015737024813428396
2024-01-08,-0.0324146174708558
2024-01-09,-0.03272630028108506
2024-01-10,-0.025119018692779552
2024-01-11,-0.023556433573182448
2024-01-12,-0.012011737889515223
2024-01-15,-0.016280462373197038
2024-01-16,-0.026995268595190445
2024-01-17,-0.023192111934065153
2024-01-18,-0.017677546695245246
2024-01-19,-0.014777967031195875
2024-01-22,-0.011645920158554354
2024-01-23,-0.015232663222352838
2024-01-24,-0.008495929496611349
2024-01-25,-0.0019170560781412924
2024-01-26,-0.008165708165443313
2024-01-29,-0.009430068671282377
2024-01-30,-0.01759629264027393
2024-01-31,-0.010940733415854012
2024-02-01,0.0004916915318164544
2024-02-02,-0.009021185983052654
2024-02-05,0.007419868391494139
2024-02-06,0.020863167137201502
2024-02-07,0.00721366471737199
2024-02-08,0.0013944217856855096
2024-02-19,0.0010280751832427992
2024-02-20,0.004244082040207715
2024-02-21,0.0157027113243096
2024-02-22,0.00912876409514126
2024-02-23,0.01386018198701872
2024-02-26,0.00036027062846524446
2024-02-27,-0.01782562179315342
2024-02-28,-0.011312471024385871
2024-02-29,-0.01443911809863541
2024-03-01,-0.022392801680260033
2024-03-04,-0.020302218098051314
2024-03-05,-0.024312241606680093
2024-03-06,-0.021247262268794802
2024-03-07,-0.022439050171673636
2024-03-08,-0.03248879631166107
2024-03-11,-0.03443973829237193
2024-03-12,-0.020748022788886544
2024-03-13,-0.009046028718236294
2024-03-14,-0.014102598972732052
2024-03-15,-0.026297445575645916
2024-03-18,-0.01883613894648192
2024-03-19,-0.017065548681339013
2024-03-20,-0.014051041318137905
2024-03-21,-0.021868630077613402
2024-03-22,-0.023771200515364868
2024-03-25,-0.016730972485297247
2024-03-26,-0.013109451203615433
2024-03-27,-0.00581183475175941
2024-03-28,-0.011323569487115753
2024-03-29,-0.014109247623667082
2024-04-01,-0.028720680639394064
2024-04-02,-0.024455370179049987
2024-04-03,-0.023361713618123302
2024-04-08,-0.027584803552251187
2024-04-09,-0.02899669584293878
2024-04-10,-0.030193110664674724
2024-04-11,-0.03509514537607999
2024-04-12,-0.04016561716128941
2024-04-15,-0.048258335967254797
2024-04-16,-0.04646922656616626
2024-04-17,-0.0537287277708173
2024-04-18,-0.044417169764162184
2024-04-19,-0.05339821283216025
2024-04-22,-0.03327784505928694
2024-04-23,-0.011400238465224508
2024-04-24,-0.009265641555750662
2024-04-25,-0.006416890575027447
2024-04-26,0.00497662407754877
2024-04-29,0.006540030269641718
2024-04-30,0.007567977762719099
2024-05-06,0.01244552857273913
2024-05-07,0.003951905572365895
2024-05-08,0.001252400224923256
2024-05-09,0.006269774417894596
2024-05-10,0.010957500395997726
2024-05-13,0.01072754661331939
2024-05-14,0.007909622650880712
2024-05-15,0.005188501914924478
2024-05-16,0.007943869124769
2024-05-17,0.000954451196185313
2024-05-20,-0.006141898198609084
2024-05-21,-0.003994918397180958
2024-05-22,0.004302934411679518
2024-05-23,0.007080229618140175
2024-05-24,0.004167404749056483
2024-05-27,0.0032954754066840605
2024-05-28,0.0026377099741054337
2024-05-29,0.002825324527492304
2024-05-30,0.014983208714256444
2024-05-31,0.021835462262083053
2024-06-03,0.026788124154005465
2024-06-04,0.029732519928143596
2024-06-05,0.028835339840209133
2024-06-06,0.028094469426505633
2024-06-07,0.02367644236232541
2024-06-11,0.026575635204632363
2024-06-12,0.025383728604427974
2024-06-13,0.020876959337949908
2024-06-14,0.013991338051952294
2024-06-17,0.021758767725162154
2024-06-18,0.021467848176500166
2024-06-19,0.012650126993760778
2024-06-20,0.0042458826667044185
2024-06-21,0.00047682935700160147
2024-06-24,0.00030237852618483774
2024-06-25,0.00635137936773653
2024-06-26,0.005924520679648
2024-06-27,-0.0021867379274388976
2024-06-28,-0.0072151135021259714
2024-07-01,-0.007317437726072466
2024-07-02,-0.005757637105344868
2024-07-03,-0.0064500737116295745
2024-07-04,-0.00016901575084607347
2024-07-05,-0.006936124204042509
2024-07-08,-0.025306091283130418
2024-07-09,-0.02785155877002917
2024-07-10,-0.026566609142797855
2024-07-11,-0.024076769536098986
2024-07-12,-0.012963222548968763
2024-07-15,-0.016164764395659247
2024-07-16,-0.015424506147157777
2024-07-17,-0.0017286303158182761
2024-07-18,0.001062706534612587
2024-07-19,0.006434809541556091
2024-07-22,0.01062952038366309
2024-07-23,0.007880539648875827
2024-07-24,0.006802632348946652
2024-07-25,0.013082148078097178
2024-07-26,0.010880559733062588
2024-07-29,0.0054725068786281375
2024-07-30,0.005432609840180135
2024-07-31,0.013358573354635944
2024-08-01,0.0011395705823574742
2024-08-02,0.0012402896591373735
2024-08-05,0.031962462024404975
2024-08-06,0.02599004859341997
2024-08-07,0.013379586321464588
2024-08-08,0.01437457532954862
2024-08-09,0.008725011460471513
2024-08-12,0.006159356367247341
2024-08-13,0.0035811358179382684
2024-08-14,-0.00578165864303222
2024-08-15,-0.0009278109954286955
2024-08-16,0.003032568574355868
2024-08-19,0.0038772244601751847
2024-08-20,-0.005112741822326759
2024-08-21,-0.001178049682828631
2024-08-22,-0.0027586741414620374
2024-08-23,-0.013949488645382922
2024-08-26,-0.017976700820443507
2024-08-27,-0.026697748155641285
2024-08-28,-0.04937411224120258
2024-08-29,-0.06876071992206972
2024-08-30,-0.08891209278312712
2024-09-02,-0.06752755514671033
2024-09-03,-0.05910329249281765
2024-09-04,-0.039237273966377356
2024-09-05,-0.027257380703261086
2024-09-06,-0.0238414162456195
2024-09-09,-0.01653606138314409
2024-09-10,-0.011796312579182455
2024-09-11,-0.03319214376505747
2024-09-12,-0.03503467950588346
2024-09-13,-0.03778016651590699
2024-09-18,-0.044135632231907945
2024-09-19,-0.03390151781901951
2024-09-20,-0.05004437350441859
2024-09-23,-0.060516803788322304
2024-09-24,-0.06888948328896713
2024-09-25,-0.05199005696388817
2024-09-26,-0.039761413086149694
2024-09-27,-0.004752274369330817
2024-09-30,0.0009513999260568364
2024-10-08,-0.014823861666762465
2024-10-09,0.005400454363396753
2024-10-10,0.02252018320830952
2024-10-11,0.014427084835988993
2024-10-14,0.010399537897570907
2024-10-15,0.006519547654951885
2024-10-16,0.013213431275538007
2024-10-17,0.013624959783678267
2024-10-18,0.0004267756528843116
2024-10-21,-0.003987339417766535
2024-10-22,0.0012970770307639372
2024-10-23,0.004791821231637917
2024-10-24,0.005969956862645617
2024-10-25,-0.00040778374709132467
2024-10-28,-0.001738281253116935
2024-10-29,-0.0023743717457189208
2024-10-30,0.003325032069510742
2024-10-31,-0.006814989385248998
2024-11-01,0.015384855759889236
2024-11-04,0.010173801810208678
2024-11-05,-0.015237407828569485
2024-11-06,-0.01532537954269529
2024-11-07,-0.013584338578320459
2024-11-08,-0.009940159645745369
2024-11-11,-0.03587628849565298
2024-11-12,-0.026118305090749184
2024-11-13,-0.030121789191326177
2024-11-14,-0.024600534150264232
2024-11-15,-0.008990778057230388
2024-11-18,-0.0015923483762425375
2024-11-19,-0.01440442813886695
2024-11-20,-0.010240188035880164
2024-11-21,-0.004629187480592405
2024-11-22,0.014343562472994136
2024-11-25,0.006529717277491243
2024-11-26,0.013345870118505705
2024-11-27,0.00010906868988327934
2024-11-28,0.008206795115715395
2024-11-29,-0.0028616653381187095
2024-12-02,-0.0047943254472442316
2024-12-03,-0.008716138671420091
2024-12-04,-0.017210853320035094
2024-12-05,-0.03582942435724716
2024-12-06,-0.03560527083739759
2024-12-09,-0.011695176261603372
2024-12-10,-0.010001174078204035
2024-12-11,-0.010632480373240272
2024-12-12,-0.008813240028903671
2024-12-13,-0.0085151901512735
2024-12-16,0.0002284651874747204
2024-12-17,0.00047742459957729813
2024-12-18,-0.0036208757923398283
2024-12-19,0.0005807785546563318
2024-12-20,-0.009953170011861499
2024-12-23,0.0012081218538228713
2024-12-24,0.011610239922682144
2024-12-25,0.006310079232248262
2024-12-26,0.004614509967223072
2024-12-27,-0.0074155837544462345
2024-12-30,-0.0028910671967990673
2024-12-31,0.004799337324918948
2025-01-02,0.0013836530999817923
2025-01-03,0.012799683998025127
2025-01-06,0.01711465045889199
2025-01-07,0.0035990012524529935
2025-01-08,-0.012966483001229864
2025-01-09,-0.016395935270283213
2025-01-10,-0.016109803117665647
2025-01-13,-0.030303813993246692
2025-01-14,-0.02325666891204533
2025-01-15,-0.019927762335471305
2025-01-16,-0.01656562488241735
2025-01-17,-0.011544693096971717
2025-01-20,-0.007809470989850187
2025-01-21,-0.031788719590858626
2025-01-22,-0.025130814913993986
2025-01-23,-0.03244976979210232
2025-01-24,-0.017919780916662815
2025-01-27,-0.007364029951943428
2025-02-05,-0.005726723903070413
2025-02-06,-0.003097574757505675
2025-02-07,-0.005740597384963103
2025-02-10,-0.0041084715285506935
2025-02-11,-0.007866935740871708
2025-02-12,-0.011656770166227352
2025-02-13,-0.007615129039872365
2025-02-14,-0.007549865651548774
2025-02-17,-0.012267663127124859
2025-02-18,-0.007328525598783095
2025-02-19,-0.019020344872679205
2025-02-20,-0.018134386590475504
2025-02-21,-0.04255220515952496
2025-02-24,-0.04318494545219722
2025-02-25,-0.059020223150408106
2025-02-26,-0.05968360433528315
2025-02-27,-0.04679723283758308
2025-02-28,-0.021057573018078223
2025-03-03,-0.015348165373174688
2025-03-04,-0.029954317795429054
2025-03-05,-0.035301924779649635
2025-03-06,-0.05796056643986341
2025-03-07,-0.06884810460285032
2025-03-10,-0.08615532213215549
2025-03-11,-0.07111742635761478
2025-03-12,-0.06420282991105794
2025-03-13,-0.0404380585802339
2025-03-14,-0.04671464182170786
2025-03-17,-0.046519094302388056
2025-03-18,-0.059420567126867885
2025-03-19,-0.05313873206454952
2025-03-20,-0.044406598700366826
2025-03-21,-0.023757012554886617
2025-03-24,-0.02539260190053625
2025-03-25,-0.00521563816478697
2025-03-26,-0.007479470424914272
2025-03-27,-0.003735591974672936
2025-03-28,-0.006166588750360816
2025-03-31,-0.003464836487517612
2025-04-01,0.0013904200058546708
2025-04-02,0.008640991702812994
2025-04-03,0.013611258577693618
2025-04-07,0.031371884519707224
2025-04-08,0.043495928873502364
2025-04-09,0.03280895417730123
2025-04-10,0.01562743441172265
2025-04-11,0.011890784121699471
2025-04-14,0.0007925350512961761
2025-04-15,0.007133706582939069
2025-04-16,0.013368846185932173
2025-04-17,0.015697670429286388
2025-04-18,0.010438133080994866
2025-04-21,0.005357272188274063
2025-04-22,0.0043278079308681425
2025-04-23,-4.491959962020162e-05
2025-04-24,0.0061727647328126654
2025-04-25,0.0024268728592256594
2025-04-28,0.012954410645298738
2025-04-29,0.0032422156503572087
2025-04-30,0.0023452164212387216
2025-05-06,-0.0014928298927664573
2025-05-07,0.011764546304586154
2025-05-08,0.012592696105000776
2025-05-09,0.019843208839119608
2025-05-12,0.019247176022555365
2025-05-13,0.022145493839403896
2025-05-14,0.023603947778746477
2025-05-15,0.025268969956453537
2025-05-16,0.02725052660160264
2025-05-19,0.019596716233974992
2025-05-20,0.02051377389608571
2025-05-21,0.018843364297706843
2025-05-22,0.014354971147823286
2025-05-23,0.016885979198148153
2025-05-26,0.022349871224719466
2025-05-27,0.026922040185098306
2025-05-28,0.025767150973906076
2025-05-29,0.01966253343031837
2025-05-30,0.02580618340332849
2025-06-03,0.0183136384368462
2025-06-04,0.007746899128047619
2025-06-05,0.008800384171688286
2025-06-06,0.008771285918765873
2025-06-09,0.003000717544773726
2025-06-10,0.003081673355482331
2025-06-11,0.0037293772044192097
2025-06-12,-0.005725119393974434
2025-06-13,0.0017409713813357902
2025-06-16,-0.0033673167480110927
2025-06-17,0.014291488309562887
2025-06-18,0.017751773140339176
2025-06-19,0.028641513005557562
2025-06-20,0.03106188767041019
2025-06-23,0.019182774451466073
2025-06-24,0.005607098105107164
2025-06-25,0.0064509313090669596
2025-06-26,0.009566060506706178
2025-06-27,0.01147637392720921
2025-06-30,0.01526268014877602
2025-07-01,0.015761722282977474
2025-07-02,0.016103133442145846
2025-07-03,0.024663215904999564
2025-07-04,0.017283725987765716
2025-07-07,0.019382829406019292
2025-07-08,0.019903349761785656
2025-07-09,0.026057790753528647
2025-07-10,0.025198868634976723
2025-07-11,0.016334223840648268
2025-07-14,0.018829458950194944
2025-07-15,0.013945963531468208
2025-07-16,0.019732188285274364
2025-07-17,0.016467676423484227
2025-07-18,0.019759150440875846
2025-07-21,0.03370480227459057
2025-07-22,0.030121216203179306
2025-07-23,0.021077608828622342
2025-07-24,0.019062093177832994
2025-07-25,0.02331407158914435
2025-07-28,0.014718372049473585
2025-07-29,0.010027292138084204
2025-07-30,0.02063714255662872
2025-07-31,0.029230123005277733
2025-08-01,0.03331923146913551
2025-08-04,0.04546745154102785
2025-08-05,0.0276782399718805
2025-08-06,0.020303010462358217
2025-08-07,0.006391972924084562
2025-08-08,0.018707023065855866
2025-08-11,0.01740929590952771
2025-08-12,0.020179023413645872
2025-08-13,0.021349238821988317
2025-08-14,0.041518566205558396
2025-08-15,0.043915275027717214
2025-08-18,0.030575800713237872
2025-08-19,0.039366575728424155
2025-08-20,0.04116151121917577
2025-08-21,0.057281613467975556
2025-08-22,0.029233609957975533
2025-08-25,0.05032172619058263
2025-08-26,0.06187049294406
2025-08-27,0.06818956887360994
2025-08-28,0.04086634379348103
2025-08-29,0.030889171343648412
2025-09-01,0.03285596012967641
2025-09-02,0.0619933770825204
2025-09-03,0.06884052785560693
2025-09-04,0.0797893711309389
2025-09-05,0.06111440971901
2025-09-08,0.04097632859484206
2025-09-09,0.0544951118816901
2025-09-10,0.041260506744200065
2025-09-11,-0.0008891067403977312
2025-09-12,-0.008944769992181526
2025-09-15,0.007584658771956371
2025-09-16,-0.0002961218343294752
2025-09-17,-0.009480398472905036
2025-09-18,0.006971648745280053
2025-09-19,0.023888124357067424
2025-09-22,-0.00029941448407888246
2025-09-23,0.010763177993108518
2025-09-24,-0.014137796856954729
2025-09-25,-0.033272462569393015
2025-09-26,-0.026394960568494157
2025-09-29,-0.042092923691166566
2025-09-30,-0.051090317920724264
2025-10-09,-0.040641678463588474
2025-10-10,-0.019856800935197542
2025-10-13,-0.038291301665185185
2025-10-14,-0.01937641807799646
2025-10-15,-0.033055149292893854
2025-10-16,-0.01696482605281706
2025-10-17,-0.015552101133047669
2025-10-20,-0.011310895160800801
2025-10-21,-0.02397709069112193
2025-10-22,-0.020211638107901914
2025-10-23,-0.013404233324181785
2025-10-24,-0.05086144564255096
2025-10-27,-0.05854568772480626
2025-10-28,-0.05041995479988944
2025-10-29,-0.04847040359738175
2025-10-30,-0.04084147964739607
2025-10-31,-0.02231919116441534
2025-11-03,-0.013163425622218675
2025-11-04,-0.009223232859753629
2025-11-05,-0.009449039538955992
2025-11-06,-0.011793193404342973
2025-11-07,-0.002633169110319928
2025-11-10,0.023496373834169106
2025-11-11,0.03817672881860103
2025-11-12,0.03901426223948811
2025-11-13,0.022838888419499957
2025-11-14,0.039215514206799494
2025-11-17,0.02556114123503114
2025-11-18,0.017142958851564718
2025-11-19,0.027994364360971198
2025-11-20,0.02013922809204404
2025-11-21,0.03697547384000771
2025-11-24,0.052415057829802915
2025-11-25,0.04990169311246322
2025-11-26,0.040769977403639905
2025-11-27,0.039747853135128554
2025-11-28,0.03225281900278692
2025-12-01,0.03172316210649682
2025-12-02,0.04123201235182345
2025-12-03,0.03868310649422529
2025-12-04,0.04598922210407559
2025-12-05,0.05186206103732461
2025-12-08,0.05140289731949837
2025-12-09,0.043194137044889974
2025-12-10,0.051187376180349436
2025-12-11,0.07129213114680513
2025-12-12,0.046164154703405
2025-12-15,0.06630600903228154
2025-12-16,0.07872046646648018
2025-12-17,0.07678954918709827
2025-12-18,0.08126938558343506
2025-12-19,0.0692816868139012
2025-12-22,0.06350597536030927
2025-12-23,0.06547507301007296
2025-12-24,0.07004177097663565
2025-12-25,0.059646578095070665
2025-12-26,0.0714054272401009
2025-12-29,0.07268920435532311
2025-12-30,0.05411025312081888
2025-12-31,0.0525562925769026
2026-01-05,0.02246870694618516
2026-01-06,0.030515527297925886
2026-01-07,0.010289836253061306
2026-01-08,-0.007842990183745912
2026-01-09,-0.01886084984905537
2026-01-12,-0.02550367261683245
2026-01-13,-0.007095883305324209
2026-01-14,-0.02327840237368007
2026-01-15,-0.00814778030082917
2026-01-16,-0.01156061031008225
2026-01-19,-0.010973381354582784
2026-01-20,0.008725551648455659
2026-01-21,0.00318780972161058
2026-01-22,0.0021936431594993862
2026-01-23,-0.0014156942006273861
2026-01-26,-0.02440160795008692
2026-01-27,-0.02639173120639765
2026-01-28,-0.018158092162671887
2026-01-29,-0.009697951165371435
2026-01-30,-0.0013155271005716174
2026-02-02,0.032743483810719405
2026-02-03,0.004744967183797063
2026-02-04,0.01204922056903688
2026-02-05,0.02339294830887406
2026-02-06,0.022431802679107608
2026-02-09,-0.007484831674670931
2026-02-10,0.0004946435539484907
2026-02-11,-0.0037611260004353567
2026-02-12,-0.018805849628789166
2026-02-13,-0.017740808426105162
2026-02-24,-0.029067269313705506
2026-02-25,-0.029112859660039077
2026-02-26,-0.042636054444294164
2026-02-27,-0.048414673147011145
2026-03-02,-0.0516500795297535
2026-03-03,-0.03991196187817203
2026-03-04,-0.040429412909557275
2026-03-05,-0.05122328727802847
2026-03-06,-0.031511817604501766
2026-03-09,-0.025697640788097616
2026-03-10,-0.011137696253030693
2026-03-11,-0.005159760633890162
2026-03-12,0.0036341749429726206
2026-03-13,0.013079644823324812
2026-03-16,0.02321641846980912
2026-03-17,0.03488392567199616
2026-03-18,0.03368550040564872
2026-03-19,0.04723296984707557
2026-03-20,0.055713018943599285
2026-03-23,0.05462715371890169
2026-03-24,0.07051026190417051
2026-03-25,0.05922221438387802
2026-03-26,0.06343546794154557
2026-03-27,0.0761799680626395
2026-03-30,0.0631518050963115
2026-03-31,0.07934739127889016
2026-04-01,0.08449103942937503
2026-04-02,0.12368007368175349
2026-04-03,0.12890095587133524
2026-04-07,0.12146731845094297
2026-04-08,0.1164528927469334
2026-04-09,0.11623750521922058
2026-04-10,0.12340193477060829
2026-04-13,0.10699107678012545
2026-04-14,0.09454753344950492
2026-04-15,0.11575388929571004
2026-04-16,0.1080112784287852
2026-04-17,0.10750487742858811
2026-04-20,0.09408312994663548
2026-04-21,0.1217800086268598
2026-04-22,0.13348920477141205
2026-04-23,0.13451228449268748
2026-04-24,0.1316640181388066
2026-04-27,0.13878831844475692
2026-04-28,0.11172810094625112
2026-04-29,0.0810520485692552
2026-04-30,0.08110482328742159
2026-05-06,0.07937871307994138
2026-05-07,0.07849670374492947
2026-05-08,0.06716456144564648
2026-05-11,0.027778042356398566
2026-05-12,0.05566589735600484
2026-05-13,0.020476449762668984
2026-05-14,0.029714644007607493
2026-05-15,0.02788292979154152
2026-05-18,0.05545411725877453
2026-05-19,0.07348614018534043
2026-05-20,0.08060648445507093
2026-05-21,0.13163283478237967
2026-05-22,0.11771188492132911
2026-05-25,0.0722238260877811
2026-05-26,0.10160954081063805
2026-05-27,0.13763311402907574
