date,long_short
2015-02-25,-0.010204660385067257
2015-02-26,0.008844137774181436
2015-02-27,0.009605721691463509
2015-03-02,0.019093139881564018
2015-03-03,0.03259372406615252
2015-03-04,0.04094063383085319
2015-03-05,0.025534099031516176
2015-03-06,0.05754889022142456
2015-03-09,0.052809205515165436
2015-03-10,0.05200910346871059
2015-03-11,0.02817795859007903
2015-03-12,0.017341715727756522
2015-03-13,0.028328895502208594
2015-03-16,0.016406156353322716
2015-03-17,0.012783239359782615
2015-03-18,0.023974738700313025
2015-03-19,0.03132690282842951
2015-03-20,-0.012998455099537731
2015-03-23,-0.029617639170221005
2015-03-24,-0.028002154748970248
2015-03-25,-0.024858625211554228
2015-03-26,-0.013168843074718717
2015-03-27,-0.002045748019107535
2015-03-30,0.023376051266045424
2015-03-31,0.017424578419689238
2015-04-01,0.012417242121993965
2015-04-02,0.02261597622035702
2015-04-03,0.013852465683341565
2015-04-07,-0.00782424442191404
2015-04-08,-0.004122609954929836
2015-04-09,-0.003081303719500647
2015-04-10,-0.009659376367109021
2015-04-13,-0.00832120351590794
2015-04-14,-0.008959209306721255
2015-04-15,-0.01656503921079193
2015-04-16,-0.004488430591571148
2015-04-17,-0.002853483669269935
2015-04-20,0.004140094035762366
2015-04-21,0.012932911067125786
2015-04-22,0.0019290957273219063
2015-04-23,0.002134233658768782
2015-04-24,0.023916275822691978
2015-04-27,0.014021681583382729
2015-04-28,0.012358182053649015
2015-04-29,0.013608495260282539
2015-04-30,-0.010455623854729035
2015-05-04,-0.017347841568431055
2015-05-05,0.007110510576399463
2015-05-06,0.01086044390847006
2015-05-07,0.03127793945709317
2015-05-08,0.03412810948536485
2015-05-11,0.02158837951629935
2015-05-12,0.0367925851496432
2015-05-13,0.03369156497615599
2015-05-14,0.03599422652117405
2015-05-15,0.03403816093779513
2015-05-18,0.06701280580708287
2015-05-19,0.08619251578998276
2015-05-20,0.06566480359589737
2015-05-21,0.04245254736346871
2015-05-22,0.044859242506531394
2015-05-25,0.04104409450728239
2015-05-26,-0.008322640779810441
2015-05-27,-0.007870513372079047
2015-05-28,-0.0003910486635725352
2015-05-29,0.021155351286533827
2015-06-01,-0.0034193828900233587
2015-06-02,-0.02114817921285856
2015-06-03,-0.021049734564524435
2015-06-04,-0.02194145009457401
2015-06-05,-0.0444491879974706
2015-06-08,-0.04180323553483651
2015-06-09,-0.040018002255703955
2015-06-10,-0.06216980054377366
2015-06-11,-0.09224085125886365
2015-06-12,-0.12908213570227645
2015-06-15,-0.08536395421802413
2015-06-16,-0.06393402547824914
2015-06-17,-0.10531252157646354
2015-06-18,-0.10059894121106243
2015-06-19,-0.0641707058719053
2015-06-23,-0.07599776106054093
2015-06-24,-0.052257418689825585
2015-06-25,-0.029731342574656233
2015-06-26,0.010663130232744476
2015-06-29,0.04436285945009989
2015-06-30,0.016395627116350037
2015-07-01,-0.005172370742291411
2015-07-02,0.022823486388983454
2015-07-03,0.04659745905473464
2015-07-06,0.02332451838496835
2015-07-07,0.055507209248637675
2015-07-08,0.07475903026403147
2015-07-09,0.057039715503965006
2015-07-10,0.024349946771824404
2015-07-13,-0.019293758938887233
2015-07-14,-0.021734822059336648
2015-07-15,0.008054738259658512
2015-07-16,-0.004447899940890308
2015-07-17,-0.02117467686775249
2015-07-20,-0.03581203517166202
2015-07-21,-0.014432054946651111
2015-07-22,-0.02558725614487274
2015-07-23,-0.029502141848015723
2015-07-24,-0.023549563804333463
2015-07-27,0.016544125028106364
2015-07-28,-0.019782938642362767
2015-07-29,-0.01914557241229814
2015-07-30,0.003105680697823951
2015-07-31,0.01581198371257432
2015-08-03,0.030920364315124703
2015-08-04,-0.006473810363037786
2015-08-05,-0.012849239258261369
2015-08-06,-0.005419904373634347
2015-08-07,-0.03198805855781191
2015-08-10,-0.05773164096892576
2015-08-11,-0.05471906933903964
2015-08-12,-0.049162583542729565
2015-08-13,-0.03668288380581064
2015-08-14,-0.04838366999365251
2015-08-17,-0.061890714358356164
2015-08-18,-0.036653452720452256
2015-08-19,-0.05053578447608856
2015-08-20,-0.0373832759109847
2015-08-21,-0.029855766406615435
2015-08-24,-0.0276193242421707
2015-08-25,0.009159689914262095
2015-08-26,0.03149214905475192
2015-08-27,-0.001025430310899583
2015-08-28,-0.0036584878048254374
2015-08-31,-0.012586477188694434
2015-09-01,-0.00741557328859717
2015-09-02,-0.0014577682414505973
2015-09-07,-0.004620856151835837
2015-09-08,-0.0021253227068377904
2015-09-09,-0.0009236182594873008
2015-09-10,-0.00013169347699514
2015-09-11,-0.006203532341716715
2015-09-14,0.019860730367987207
2015-09-15,0.037845627016865814
2015-09-16,0.011402329189617186
2015-09-17,0.01724552374245424
2015-09-18,0.0168039138291457
2015-09-21,0.014301873417072099
2015-09-22,0.01732361161049895
2015-09-23,0.013135961531501247
2015-09-24,0.00744333839989663
2015-09-25,0.015601629024493524
2015-09-28,0.011036739567839807
2015-09-29,0.015742767863517387
2015-09-30,-0.003384089958697614
2015-10-08,0.020368547875731897
2015-10-09,0.026733021196961977
2015-10-12,0.008560035531132971
2015-10-13,0.011279059650783442
2015-10-14,0.0013366126102043463
2015-10-15,-0.0018625081961932202
2015-10-16,0.0017101943420747053
2015-10-19,-0.004559706158053385
2015-10-20,-0.014990897072298313
2015-10-21,0.026754655015997428
2015-10-22,0.008426800370302107
2015-10-23,0.024373005040530648
2015-10-26,0.029446125308404746
2015-10-27,0.016979437558429927
2015-10-28,0.05682014786573984
2015-10-29,0.05823860100628954
2015-10-30,0.03783808733396797
2015-11-02,0.06313685637007285
2015-11-03,0.057491259768471956
2015-11-04,0.02465511798696205
2015-11-05,0.03762558569302971
2015-11-06,0.021133051773388242
2015-11-09,0.007192645908160155
2015-11-10,0.007256606498368355
2015-11-11,0.008109882935997327
2015-11-12,0.0027812127234867275
2015-11-13,-0.014720079106101968
2015-11-16,-0.027207986023397596
2015-11-17,-0.01919441833962244
2015-11-18,-0.01691873393261017
2015-11-19,-0.006954265239545767
2015-11-20,-0.008536055980994333
2015-11-23,-0.007258668287050223
2015-11-24,-0.013268750805630645
2015-11-25,-0.017490235080248457
2015-11-26,-0.007337418418168269
2015-11-27,0.00427352273630264
2015-11-30,0.026759412409564136
2015-12-01,0.03304719146531388
2015-12-02,0.030141593800041933
2015-12-03,0.017228454510053556
2015-12-04,0.024353343938067117
2015-12-07,0.043034055628090276
2015-12-08,0.03604531248098207
2015-12-09,0.04214632850473338
2015-12-10,0.024134845708789432
2015-12-11,0.03925144628500777
2015-12-14,0.012663869374333996
2015-12-15,0.005595418439927058
2015-12-16,0.0051331571631051225
2015-12-17,0.0004309861753125444
2015-12-18,-0.02966297671406478
2015-12-21,-0.018245204789550377
2015-12-22,-0.014095515005560222
2015-12-23,-0.016967487761176944
2015-12-24,-0.014028001916047604
2015-12-25,-0.010578476649625579
2015-12-28,0.0063845252387545876
2015-12-29,-0.003717726284754322
2015-12-30,-0.004686409950683423
2015-12-31,-0.023596274490954444
2016-01-04,0.003488036191179905
2016-01-05,-0.00909118267068243
2016-01-06,-0.00618563571324926
2016-01-07,0.019028550761465535
2016-01-08,0.010152309695773437
2016-01-11,0.017902906930402737
2016-01-12,-0.024956968177853353
2016-01-13,-0.019593782388398595
2016-01-14,-0.027214176786441557
2016-01-15,-0.026377721253554903
2016-01-18,-0.03254286902928406
2016-01-19,-0.028320063537313964
2016-01-20,-0.0187609184957375
2016-01-21,-0.04542163138213966
2016-01-22,-0.03850493770870615
2016-01-25,-0.03754197219965463
2016-01-26,-0.007550151891694502
2016-01-27,0.007025431737598287
2016-01-28,0.011467830138752154
2016-01-29,0.02346032765679484
2016-02-01,0.011855385999739766
2016-02-02,0.0011346410659506256
2016-02-03,-0.005416412135889816
2016-02-04,-0.010410383161807837
2016-02-05,-0.022331043035680592
2016-02-15,-0.02422284858476108
2016-02-16,-0.017565031753165206
2016-02-17,-0.026227934536448685
2016-02-18,-0.009544904070455162
2016-02-19,-0.010048400401819224
2016-02-22,-0.022063237564253376
2016-02-23,-0.011836007949769385
2016-02-24,-0.004940991279930317
2016-02-25,-0.038530520893015896
2016-02-26,-0.029490346227239596
2016-02-29,-0.009985999988673472
2016-03-01,-0.02424128422595834
2016-03-02,-0.011955968852547936
2016-03-03,-0.0060482454049274725
2016-03-04,0.011552420843323818
2016-03-07,0.02478304560735062
2016-03-08,0.02841135239070372
2016-03-09,0.01921637105823633
2016-03-10,0.04269200310270578
2016-03-11,0.04042245102996784
2016-03-14,0.029487474487761577
2016-03-15,0.023458119476183693
2016-03-16,0.013193325805943627
2016-03-17,0.007705003814755827
2016-03-18,0.002971573550822549
2016-03-21,0.0019036085830491955
2016-03-22,0.007001026476004544
2016-03-23,0.0032490873821304548
2016-03-24,-0.004623107059868146
2016-03-25,-0.006814233866534489
2016-03-28,-0.0062551193145117985
2016-03-29,-0.008227009450846583
2016-03-30,-0.018704358104464497
2016-03-31,-0.016072410470243447
2016-04-01,-0.006518002245883765
2016-04-05,-0.025388192984051774
2016-04-06,-0.03338619705672167
2016-04-07,-0.02940812295200757
2016-04-08,-0.022039260912770434
2016-04-11,-0.027918476466858147
2016-04-12,-0.024001788969837037
2016-04-13,-0.021622581134980095
2016-04-14,-0.019978313131699024
2016-04-15,-0.015171758673146372
2016-04-18,-0.009034032493619107
2016-04-19,0.003232621076125682
2016-04-20,0.008393678185944197
2016-04-21,0.022059629463237106
2016-04-22,0.006215835247054258
2016-04-25,0.005973104928782974
2016-04-26,-0.008250910388032748
2016-04-27,0.003263211994243398
2016-04-28,0.014386903675138878
2016-04-29,0.005743168702594958
2016-05-03,-0.009807433889383706
2016-05-04,-0.001663829878631104
2016-05-05,-0.007223555715953567
2016-05-06,-0.006376708040008601
2016-05-09,0.002994666228033739
2016-05-10,-0.0032191870236757646
2016-05-11,-0.01374269744900615
2016-05-12,-0.020037953034555366
2016-05-13,-0.022970163665825424
2016-05-16,-0.01458192426653995
2016-05-17,-0.01972475892230786
2016-05-18,-0.011767610931952568
2016-05-19,-0.016925563270690176
2016-05-20,-0.0014369284595737372
2016-05-23,-0.006388993433585177
2016-05-24,-0.010510055680263884
2016-05-25,0.002576637944175335
2016-05-26,0.021033607381163184
2016-05-27,0.0036191087867355606
2016-05-30,0.012411464873717127
2016-05-31,0.012146357398224783
2016-06-01,0.018769242777871363
2016-06-02,-0.000807628382614914
2016-06-03,0.00015241422093795372
2016-06-06,-0.006032705386911294
2016-06-07,0.003225344235321827
2016-06-08,0.015564902195061013
2016-06-13,0.009346661896264541
2016-06-14,0.017568281554983967
2016-06-15,-0.001693344144229534
2016-06-16,-0.004671559328173
2016-06-17,-0.0006551533610299476
2016-06-20,0.010953074049010147
2016-06-21,0.0035069122902911982
2016-06-22,0.01331654488536995
2016-06-23,0.01796634108961564
2016-06-24,0.00679273765004923
2016-06-27,-0.014304166605639781
2016-06-28,-0.021208763299808593
2016-06-29,-0.011661055288218668
2016-06-30,-0.01351318929280839
2016-07-01,-0.01515602046000284
2016-07-04,-0.018552883628674036
2016-07-05,-0.011917850808489203
2016-07-06,-0.009005925232898435
2016-07-07,-0.021651206660525633
2016-07-08,-0.02040215718167625
2016-07-11,-0.008894322939377931
2016-07-12,-0.002587853266906621
2016-07-13,-0.005553649947491846
2016-07-14,-0.010980185340904714
2016-07-15,-0.011000965736577016
2016-07-18,-0.007233271395811583
2016-07-19,-0.0074324853711936496
2016-07-20,-0.009391396375545341
2016-07-21,0.005390422044548367
2016-07-22,-0.003175370927568656
2016-07-25,0.0045713582566777305
2016-07-26,-0.013197451830058477
2016-07-27,-0.007242030882621663
2016-07-28,-0.015205809716320068
2016-07-29,-0.016359763901087974
2016-08-01,-0.008412589811730611
2016-08-02,-0.009594953135379773
2016-08-03,-0.010160803629705686
2016-08-04,-0.017539118003984736
2016-08-05,-0.005525414744141567
2016-08-08,-0.010430097935547056
2016-08-09,-0.013853762296002256
2016-08-10,-0.012102153954330876
2016-08-11,-0.0056512580515748895
2016-08-12,0.004289065917499517
2016-08-15,-0.0014438881182480563
2016-08-16,-0.0038593547522108064
2016-08-17,0.012871097278655663
2016-08-18,0.0016980036659508587
2016-08-19,-0.0010361062899231568
2016-08-22,-0.002000230760609262
2016-08-23,-0.013327755396656336
2016-08-24,-0.0028161191875940477
2016-08-25,-0.004096493640642372
2016-08-26,-0.011879434861129363
2016-08-29,-0.003917225752919196
2016-08-30,-0.0069399383799442224
2016-08-31,-0.006295914042801658
2016-09-01,-0.017284350945441673
2016-09-02,-0.011089198132712495
2016-09-05,-0.017438064538782213
2016-09-06,-0.011537117548490324
2016-09-07,-0.0078590103564208
2016-09-08,-0.0027151313348202644
2016-09-09,0.00034135189587049947
2016-09-12,0.007239365548451252
2016-09-13,0.0014011018809169107
2016-09-14,-0.006087319061908453
2016-09-19,-0.017014008325760794
2016-09-20,-0.013809403187332632
2016-09-21,-0.009687187008476289
2016-09-22,-0.0037580099997009996
2016-09-23,-0.0025981104561378816
2016-09-26,-0.007756772559517788
2016-09-27,-0.0007173212456893716
2016-09-28,-0.007864152028441759
2016-09-29,-0.007073788018131542
2016-09-30,-0.012719683818666078
2016-10-10,-0.004085385639782526
2016-10-11,-0.004263818635230367
2016-10-12,-0.004716147864686649
2016-10-13,-0.008875358006743616
2016-10-14,-0.009764773427337014
2016-10-17,-0.0006979386018875783
2016-10-18,-0.008310457795947544
2016-10-19,0.00016006822255256923
2016-10-20,-0.007210533584789744
2016-10-21,-0.005126673884712684
2016-10-24,0.00152437883605561
2016-10-25,-0.003303040866030555
2016-10-26,0.011130193044060007
2016-10-27,0.006399806694615352
2016-10-28,0.006795150560359529
2016-10-31,0.002526465193512687
2016-11-01,-0.0030606323817707268
2016-11-02,-0.005773285448691729
2016-11-03,-0.009868652331668127
2016-11-04,-0.008011347240387124
2016-11-07,-0.007115019982420576
2016-11-08,-0.00499134296130695
2016-11-09,-0.010832499387253659
2016-11-10,-0.005794236852628741
2016-11-11,-0.017589143344441466
2016-11-14,-0.013515243328660062
2016-11-15,-0.01540274727449269
2016-11-16,-0.008275341491292358
2016-11-17,-0.010949243509785182
2016-11-18,-0.00327390185726718
2016-11-21,0.00801257239128005
2016-11-22,0.0021230757237255546
2016-11-23,-0.007464571196959461
2016-11-24,-0.007738670730590328
2016-11-25,-0.010371327627454342
2016-11-28,0.022486934246148588
2016-11-29,0.020507258415295524
2016-11-30,0.01671881918998093
2016-12-01,-0.0009365647078540817
2016-12-02,-0.003306467457813045
2016-12-05,-0.01492879780785246
2016-12-06,-0.004125622429428034
2016-12-07,-0.004824155028528378
2016-12-08,0.00442461562325374
2016-12-09,0.002742365357576229
2016-12-12,-0.0020214130247680206
2016-12-13,-0.007229550966288389
2016-12-14,-0.012005225325527221
2016-12-15,-0.0027600572925146625
2016-12-16,-0.01949761221725556
2016-12-19,-0.024771115543584507
2016-12-20,-0.031038954023064093
2016-12-21,-0.031096569926695607
2016-12-22,-0.03242485505421254
2016-12-23,-0.02612524484494376
2016-12-26,-0.024788340515098498
2016-12-27,-0.025199643596632244
2016-12-28,-0.020037063675639732
2016-12-29,-0.020639988819254045
2016-12-30,0.004827976470492976
2017-01-03,0.015999470788031947
2017-01-04,0.010679302779159773
2017-01-05,0.0119069245454501
2017-01-06,0.002680842256182349
2017-01-09,0.0026121249633086173
2017-01-10,0.011405603104260191
2017-01-11,0.007083290262260769
2017-01-12,0.007922666392865225
2017-01-13,0.001921027742034012
2017-01-16,0.00799961466206365
2017-01-17,0.0011136038973146908
2017-01-18,0.0023271787218078696
2017-01-19,-0.00035790715700372705
2017-01-20,-0.00767641939851558
2017-01-23,-0.007357263065027264
2017-01-24,-0.009429619236551817
2017-01-25,-0.017778246905100756
2017-01-26,-0.00891118214178133
2017-02-03,-0.009022672037615228
2017-02-06,-0.015472764876679266
2017-02-07,-0.005209679048988312
2017-02-08,-0.003890091894762974
2017-02-09,-0.0055337294310142775
2017-02-10,0.006814240643554348
2017-02-13,0.007983420235367753
2017-02-14,-0.00011910705991272086
2017-02-15,-0.0019294777925699669
2017-02-16,-0.005730356966295922
2017-02-17,-0.011816108255935449
2017-02-20,-0.015829486415900845
2017-02-21,-0.024544810538533482
2017-02-22,-0.02123404724943764
2017-02-23,-0.017713859435072483
2017-02-24,-0.017584737237120524
2017-02-27,-0.02473028323745106
2017-02-28,-0.015993984550179346
2017-03-01,-0.005657085572066841
2017-03-02,-0.006549122951670632
2017-03-03,-0.0008153860379767532
2017-03-06,0.0013444769195308792
2017-03-07,0.002283783713580308
2017-03-08,0.006826757578007873
2017-03-09,0.0071702741335931686
2017-03-10,-0.001300170925219066
2017-03-13,0.003486775174435561
2017-03-14,0.0033796759119392762
2017-03-15,0.006529243469194019
2017-03-16,0.01121789298199502
2017-03-17,0.011825462388282637
2017-03-20,0.002250248884515341
2017-03-21,0.0007246069914973174
2017-03-22,-0.004325136675880361
2017-03-23,0.0006550025158790218
2017-03-24,0.0022937570728381413
2017-03-27,0.00026007115223474365
2017-03-28,-0.009071563130278237
2017-03-29,-0.0055185009826626
2017-03-30,-0.00401676992356088
2017-03-31,-0.00218578372716168
2017-04-05,0.014952085648187015
2017-04-06,0.01738242238936536
2017-04-07,0.02200253574886627
2017-04-10,0.01801421538190687
2017-04-11,0.021774119760919464
2017-04-12,0.016069221161881142
2017-04-13,0.013782458706220614
2017-04-14,0.003104753913122123
2017-04-17,-0.0016257088355388768
2017-04-18,-0.008554352421227077
2017-04-19,-0.022426916580852746
2017-04-20,-0.005431518645900701
2017-04-21,-0.011584225616506757
2017-04-24,-0.017678442095512805
2017-04-25,0.0043601548178446355
2017-04-26,0.006954576680880675
2017-04-27,0.004142724519819913
2017-04-28,0.0005840902212526661
2017-05-02,0.004220913404473315
2017-05-03,0.004391480631572344
2017-05-04,0.005607556732718474
2017-05-05,-0.016116740549781412
2017-05-08,-0.011081310225886312
2017-05-09,-0.0005633309278970932
2017-05-10,-0.00634255551947623
2017-05-11,-0.010881635999374814
2017-05-12,-0.004788697552260107
2017-05-15,-0.016717288643839312
2017-05-16,-0.002896091110226647
2017-05-17,-0.007441342383887007
2017-05-18,-0.004523668898733892
2017-05-19,-0.002208569383517942
2017-05-22,8.029029311294386e-05
2017-05-23,-0.011964651199298626
2017-05-24,-0.0025835505192418964
2017-05-25,0.013146407577493895
2017-05-26,0.011813397751768102
2017-05-31,0.009032765205581378
2017-06-01,2.6979881949731888e-06
2017-06-02,0.0008508489818374008
2017-06-05,0.002597658179793263
2017-06-06,0.005541422920528869
2017-06-07,0.0023448756495506665
2017-06-08,0.005554821615632902
2017-06-09,0.004584056587243443
2017-06-12,0.0011078658416025615
2017-06-13,0.0038447048854598313
2017-06-14,0.009541480245523603
2017-06-15,0.006498257189909311
2017-06-16,0.01586465961199864
2017-06-19,0.00728921968872882
2017-06-20,0.010305119192011235
2017-06-21,0.008001281426145415
2017-06-22,0.0010959924800403031
2017-06-23,-0.00278059917412991
2017-06-26,-0.0043057247181185025
2017-06-27,0.0006770004417622397
2017-06-28,-0.0010389855351442736
2017-06-29,0.0020879995320721894
2017-06-30,-0.0007271509015842354
2017-07-03,0.024204010436167083
2017-07-04,0.0031428137145531054
2017-07-05,-0.005299364686428082
2017-07-06,0.017902783594093252
2017-07-07,0.018719458434535645
2017-07-10,0.01748986770874496
2017-07-11,0.01711428295108864
2017-07-12,0.010983723635181528
2017-07-13,0.011731454617353807
2017-07-14,0.010041268197966845
2017-07-17,-0.011680210241849582
2017-07-18,-0.014924681822381922
2017-07-19,-0.00449401340451791
2017-07-20,-0.004971497836681716
2017-07-21,-0.00849178313917175
2017-07-24,-0.010620198237626118
2017-07-25,0.003524393778946691
2017-07-26,0.0008121849102108794
2017-07-27,0.012148623164335312
2017-07-28,0.004376585868303677
2017-07-31,0.0005059858954420959
2017-08-01,0.007575494150264521
2017-08-02,-0.00037363058989974473
2017-08-03,0.004118654166469689
2017-08-04,0.008365606696578664
2017-08-07,0.005448443290155462
2017-08-08,0.002016788908368252
2017-08-09,0.0008487004096746076
2017-08-10,-0.0032437528601215815
2017-08-11,-0.0008241605920033257
2017-08-14,0.002965746121076293
2017-08-15,0.005596339112865625
2017-08-16,0.005871145087258046
2017-08-17,0.0022822686132998767
2017-08-18,0.00044603236729221993
2017-08-21,0.0010332357735799574
2017-08-22,-7.148567717356683e-05
2017-08-23,-0.0026651097896719655
2017-08-24,0.002456130553950827
2017-08-25,-0.00036743537815391025
2017-08-28,-0.005441970121389925
2017-08-29,-0.00957961556073233
2017-08-30,-0.006414474960096969
2017-08-31,-0.005172043496837403
2017-09-01,-0.003632678810633911
2017-09-04,-0.004165187327551291
2017-09-05,0.001555458161298531
2017-09-06,0.0011388259050949335
2017-09-07,-0.0001122674884054993
2017-09-08,0.0019660480781326034
2017-09-11,0.00592185351749558
2017-09-12,-0.002402864031229423
2017-09-13,-0.0070000110758921584
2017-09-14,0.0018007671756249213
2017-09-15,-0.0011693865539182946
2017-09-18,-0.009822952797018399
2017-09-19,-0.010215893592741127
2017-09-20,-0.0048535378143722465
2017-09-21,-0.012218207204667288
2017-09-22,-0.01783420198991721
2017-09-25,-0.013510659858858062
2017-09-26,-0.010980781629398407
2017-09-27,-0.008390156512470938
2017-09-28,-0.012897706265991992
2017-09-29,-0.009895537613972959
2017-10-09,-0.0027314359931934424
2017-10-10,-0.0028498371400443867
2017-10-11,-0.006281079682398797
2017-10-12,-0.0014478497615795652
2017-10-13,0.0016448812320779462
2017-10-16,0.004429384545080453
2017-10-17,0.0055470367384131605
2017-10-18,0.0009941732966509695
2017-10-19,-0.0010873218684004987
2017-10-20,0.008505884121612035
2017-10-23,0.009189132107423222
2017-10-24,0.0020962706944143757
2017-10-25,-0.004916241287057661
2017-10-26,0.012753606821896343
2017-10-27,0.00048750287665860065
2017-10-30,0.006655051986725516
2017-10-31,0.009467430180469524
2017-11-01,0.009472328346386151
2017-11-02,0.010362591096478694
2017-11-03,0.014390888092338853
2017-11-06,0.01269443114153614
2017-11-07,0.01420226488429061
2017-11-08,0.02009732110364332
2017-11-09,0.006539994093778316
2017-11-10,0.009581102232198598
2017-11-13,0.01158516144818581
2017-11-14,0.010924991924039744
2017-11-15,-0.004747431079541914
2017-11-16,-0.004096782925987755
2017-11-17,-0.018477233976771743
2017-11-20,-0.018163000314091307
2017-11-21,-0.0058205052047882976
2017-11-22,0.0014476521433324126
2017-11-23,-0.0183626325598595
2017-11-24,-0.008937710032919297
2017-11-27,-0.007230267168842834
2017-11-28,-0.005159140797505603
2017-11-29,0.006399177903864675
2017-11-30,0.008327371763881652
2017-12-01,0.00689049249420741
2017-12-04,0.0008534889794392063
2017-12-05,-0.004822435051135367
2017-12-06,0.004146336474882046
2017-12-07,0.011974103243789643
2017-12-08,0.0108337909861119
2017-12-11,0.020006331256914936
2017-12-12,0.014287973420204466
2017-12-13,0.017183592254691835
2017-12-14,0.013867029177925826
2017-12-15,0.00921484302386589
2017-12-18,0.004395658414627421
2017-12-19,0.0019639371057873847
2017-12-20,-0.010334128110715024
2017-12-21,-0.0153516237622668
2017-12-22,-0.01678631182824864
2017-12-25,-0.020148418476596368
2017-12-26,-0.015130654141862612
2017-12-27,-0.003736433256694094
2017-12-28,-0.002431751434504043
2017-12-29,0.013765068319361168
2018-01-02,0.023195508437884357
2018-01-03,0.023442214327437906
2018-01-04,0.026508202887457914
2018-01-05,0.022552579132783884
2018-01-08,0.018197234374432887
2018-01-09,0.015965442462728883
2018-01-10,0.0012039036706153194
2018-01-11,-0.001729173023406666
2018-01-12,-0.002678835732547947
2018-01-15,-0.014681323468796649
2018-01-16,-0.013688770635055966
2018-01-17,0.003833239719633879
2018-01-18,0.012148364795115803
2018-01-19,0.018046675328817038
2018-01-22,0.009557789998328212
2018-01-23,0.028634974952735807
2018-01-24,0.017680669759034172
2018-01-25,0.021956271338198136
2018-01-26,0.028350150398110924
2018-01-29,0.016494313427533353
2018-01-30,0.025690323397541785
2018-01-31,0.015137356837829609
2018-02-01,0.00402591962660287
2018-02-02,-9.314754262203934e-05
2018-02-05,-0.013788068949188697
2018-02-06,-0.036984410409334006
2018-02-07,-0.029328471024593548
2018-02-08,-0.025927245972865165
2018-02-09,-0.03366960590535896
2018-02-12,-0.03319425357591754
2018-02-13,-0.040372128061582746
2018-02-14,-0.04467636302746282
2018-02-22,-0.029701271870377403
2018-02-23,-0.04021669701751008
2018-02-26,-0.03217460656282384
2018-02-27,-0.028289075606814144
2018-02-28,-0.018724653127053487
2018-03-01,-0.01158145752037842
2018-03-02,-0.009953783768955875
2018-03-05,-0.0010855396974215926
2018-03-06,0.0025932113849364198
2018-03-07,-0.001187886133197179
2018-03-08,-0.004263842113431228
2018-03-09,0.013070672187877906
2018-03-12,0.009402932054392639
2018-03-13,0.001656673023127088
2018-03-14,0.012177060704481386
2018-03-15,0.010609718879003714
2018-03-16,0.011191246787893294
2018-03-19,0.005419820580439154
2018-03-20,0.0018533652565623157
2018-03-21,-0.0017916851776155623
2018-03-22,0.0068916572893798385
2018-03-23,-0.0024625829294852583
2018-03-26,-0.008135781493839315
2018-03-27,-0.0006638730106002192
2018-03-28,-0.005952138242101289
2018-03-29,-0.005511669287324775
2018-03-30,-0.005318166986563441
2018-04-02,-0.005986507414623848
2018-04-03,-0.010270619648950007
2018-04-04,-0.0023328220409957884
2018-04-09,0.0042189272107975295
2018-04-10,-0.0019694059478575256
2018-04-11,0.00094064553450127
2018-04-12,-0.0026628552210282153
2018-04-13,-0.007478292886583356
2018-04-16,-0.0036794451401860086
2018-04-17,-0.004575362821957492
2018-04-18,1.733951638853079e-06
2018-04-19,-0.0016648021089057774
2018-04-20,-0.005088238780079971
2018-04-23,-0.009869336072658011
2018-04-24,-0.008721513714074189
2018-04-25,-0.005537537541217876
2018-04-26,-0.0004853813947952347
2018-04-27,0.003661633207195123
2018-05-02,0.006983827223083924
2018-05-03,-9.738035677140863e-05
2018-05-04,-0.0026318503180759317
2018-05-07,-0.0027158833189898004
2018-05-08,-0.005943584059405491
2018-05-09,-0.003194170040853457
2018-05-10,-0.0030966558984772703
2018-05-11,0.0008665081308281402
2018-05-14,-0.004469363866804358
2018-05-15,0.000509331535724581
2018-05-16,0.006910567968913015
2018-05-17,0.01161443848528014
2018-05-18,0.017386286762483622
2018-05-21,0.02654634898170021
2018-05-22,0.01694068779215072
2018-05-23,0.02463376111704251
2018-05-24,0.016549798829324305
2018-05-25,0.0124708400162679
2018-05-28,0.009092775138622847
2018-05-29,0.01059824933741019
2018-05-30,0.0011068183241393437
2018-05-31,-6.701142457865572e-05
2018-06-01,-0.0011276328045393847
2018-06-04,0.016726990857234336
2018-06-05,0.010042810434091408
2018-06-06,0.01241606424899725
2018-06-07,0.015207655329009168
2018-06-08,0.012863184764596872
2018-06-11,0.021325129573867257
2018-06-12,0.015342029774978144
2018-06-13,0.012488537441406267
2018-06-14,0.013464901440793889
2018-06-15,0.019191175184357784
2018-06-19,0.0033963011667727597
2018-06-20,0.0031627125489999963
2018-06-21,0.008776902035225749
2018-06-22,0.0068992267813736165
2018-06-25,-0.0003821693467199981
2018-06-26,-0.014790906746611274
2018-06-27,-0.00472796512703095
2018-06-28,-0.006220523518874501
2018-06-29,-0.0053750384359321545
2018-07-02,-0.007390730687955324
2018-07-03,-0.006458937579200067
2018-07-04,-0.002864945601675918
2018-07-05,0.0024772829483585244
2018-07-06,0.0028109921104645143
2018-07-09,-0.005595595820355015
2018-07-10,-0.008024643462496015
2018-07-11,-0.011004999794237073
2018-07-12,-0.01147469603911823
2018-07-13,-0.01761895622103845
2018-07-16,-0.025971102671726427
2018-07-17,-0.0196394728703409
2018-07-18,-0.015396023391491683
2018-07-19,-0.01894137566112318
2018-07-20,-0.01278267982855914
2018-07-23,-0.0022214727758713415
2018-07-24,-0.006028767597991765
2018-07-25,-0.0009295662788032857
2018-07-26,0.0015076922181649181
2018-07-27,0.003116395127951102
2018-07-30,0.006887036855701405
2018-07-31,0.010922686006406699
2018-08-01,0.00469693529889274
2018-08-02,0.008190624018205542
2018-08-03,-0.0016362001515006358
2018-08-06,-0.005293248172743855
2018-08-07,0.003680278330796141
2018-08-08,0.0063734516250021035
2018-08-09,0.0038588518747944833
2018-08-10,0.0011623613322029012
2018-08-13,-0.0006497473739435846
2018-08-14,-0.0001958101119899755
2018-08-15,-0.00034522830091912246
2018-08-16,0.0011694402679478296
2018-08-17,0.0038924179138209985
2018-08-20,0.0032499717986140117
2018-08-21,0.0024227865917229195
2018-08-22,0.0039852271780594995
2018-08-23,0.009846450831992435
2018-08-24,0.006674852553175062
2018-08-27,0.010009331427393013
2018-08-28,0.008797300245345231
2018-08-29,0.008810447723281219
2018-08-30,0.0021663117684329117
2018-08-31,0.0006639675691298003
2018-09-03,0.006201061649484418
2018-09-04,0.0008315877857022168
2018-09-05,-0.012983900299473588
2018-09-06,-0.014391083641734526
2018-09-07,-0.010023704589680809
2018-09-10,-0.009853115457448613
2018-09-11,-0.010213138550905762
2018-09-12,-0.00798683688945023
2018-09-13,-0.005350275827235823
2018-09-14,0.0012281113365903507
2018-09-17,-0.0024206582894576133
2018-09-18,-0.0004975310413446732
2018-09-19,0.01786775754482737
2018-09-20,0.019836976563233084
2018-09-21,0.02306000266657872
2018-09-25,0.016229656609682536
2018-09-26,0.015231809977500732
2018-09-27,0.021399942716415404
2018-09-28,0.020384281531484374
2018-10-08,0.016542260389426293
2018-10-09,0.011325857602213673
2018-10-10,0.008245607041689217
2018-10-11,-0.01225769481446968
2018-10-12,-0.01401972235007809
2018-10-15,-0.022336012064233524
2018-10-16,-0.02988358952859352
2018-10-17,-0.028551645285991623
2018-10-18,-0.044525986721190125
2018-10-19,-0.03854400959356213
2018-10-22,-0.029851754513152192
2018-10-23,-0.023370794816383846
2018-10-24,-0.021733270817129714
2018-10-25,-0.018283750035134303
2018-10-26,-0.016968622441389605
2018-10-29,-0.009850005139880616
2018-10-30,-0.0132621141222313
2018-10-31,-0.018773991495884705
2018-11-01,-0.019427011446029003
2018-11-02,-0.01697250302772714
2018-11-05,-0.011180137683131312
2018-11-06,-0.0018087602928656891
2018-11-07,-0.0021919798333154836
2018-11-08,-0.006938642839575941
2018-11-09,0.0022670599097169603
2018-11-12,0.0030904405040568083
2018-11-13,0.002820211795592928
2018-11-14,0.006276404134534097
2018-11-15,0.008222697658206119
2018-11-16,0.006315309874160527
2018-11-19,0.00887408290619716
2018-11-20,0.003256607405007712
2018-11-21,0.003616579451631241
2018-11-22,0.002720384844324703
2018-11-23,-0.0036470677347122636
2018-11-26,-0.001047131480174949
2018-11-27,-0.000915286759054596
2018-11-28,-0.0018953208843728944
2018-11-29,-0.001513625738515878
2018-11-30,0.0043373495846011755
2018-12-03,-0.0016336429708331962
2018-12-04,0.0017363117295081734
2018-12-05,0.003824341990332561
2018-12-06,-0.0008802302771732801
2018-12-07,0.007713041490735404
2018-12-10,0.007964717793950759
2018-12-11,0.008750191522218283
2018-12-12,0.008422074524390248
2018-12-13,0.009919467877654964
2018-12-14,0.006886898554860486
2018-12-17,0.013012491601716587
2018-12-18,0.016201465857956246
2018-12-19,0.0033666288734816655
2018-12-20,0.0017330520202011581
2018-12-21,-0.006500639538441614
2018-12-24,0.0016506146009352737
2018-12-25,0.003135938214026371
2018-12-26,-0.0007917808799204722
2018-12-27,-0.004553028099964048
2018-12-28,-0.010503694957887697
2019-01-02,-0.009089784800956062
2019-01-03,-0.007751023769763162
2019-01-04,-0.002833429255623028
2019-01-07,-0.00023815308030225232
2019-01-08,0.0031108856148486397
2019-01-09,0.0004681355589512947
2019-01-10,-0.0017166489911509264
2019-01-11,0.0036118621282712066
2019-01-14,0.00021902892923219078
2019-01-15,0.00813731199008918
2019-01-16,0.014885907622714268
2019-01-17,0.0117133876015349
2019-01-18,0.006136158170273413
2019-01-21,0.012750328788797982
2019-01-22,0.0022380177675363697
2019-01-23,-0.0023309071605358
2019-01-24,0.0023162971918668923
2019-01-25,-0.006829830347014128
2019-01-28,-0.01819219235392243
2019-01-29,-0.013548761525825265
2019-01-30,-0.018848740678580084
2019-01-31,-0.020916363194242976
2019-02-01,-0.013689440900921612
2019-02-11,-0.017258758551682685
2019-02-12,-0.02683244758840428
2019-02-13,-0.013010053738488722
2019-02-14,-0.022801184215636754
2019-02-15,-0.01585798954785507
2019-02-18,-0.006509009392742113
2019-02-19,-0.0034812369458484954
2019-02-20,-0.013479363640092695
2019-02-21,-0.0316005856734225
2019-02-22,-0.003866626954912966
2019-02-25,-0.009375019616113242
2019-02-26,-0.007767103945882044
2019-02-27,-0.006015520358051488
2019-02-28,-0.001598911469382902
2019-03-01,-0.007140069636851952
2019-03-04,-0.013530373387471407
2019-03-05,-0.01329619037680678
2019-03-06,-0.0053359307441118164
2019-03-07,-0.0012802213557335934
2019-03-08,-0.004827115993660792
2019-03-11,-0.006241271393028346
2019-03-12,-7.220839646360222e-05
2019-03-13,-0.0017542331648933152
2019-03-14,0.002028818669386194
2019-03-15,0.011004787679763435
2019-03-18,0.017592355269225722
2019-03-19,0.008364530068940716
2019-03-20,0.005284729874917231
2019-03-21,0.0036811066972206527
2019-03-22,-0.006841809694495098
2019-03-25,-0.003675975234099224
2019-03-26,-0.005702386793423664
2019-03-27,-0.002929026920250752
2019-03-28,-0.00037251549821314817
2019-03-29,-0.009563972552443546
2019-04-01,-0.007928929760460106
2019-04-02,-0.006102907565190663
2019-04-03,0.0007629117020134221
2019-04-04,-0.0011311422983403124
2019-04-08,0.0005996441700309094
2019-04-09,0.002208254810856687
2019-04-10,0.0033328983520927117
2019-04-11,0.004681488091764517
2019-04-12,0.007306844011018845
2019-04-15,0.007975160768659784
2019-04-16,0.00882142717555831
2019-04-17,0.0052333125834967825
2019-04-18,0.007478343841895073
2019-04-19,0.00012182607080953034
2019-04-22,0.005927550555144545
2019-04-23,0.0028867462665188998
2019-04-24,0.008889274344895733
2019-04-25,0.00969805485533827
2019-04-26,0.006471224997741665
2019-04-29,-0.004289130341213948
2019-04-30,-0.005519656832733873
2019-05-06,0.0008049894350512718
2019-05-07,0.0020138089611884333
2019-05-08,0.0038857960214751675
2019-05-09,-0.0007430571430306898
2019-05-10,-0.0014689924800005763
2019-05-13,0.0016173810585389595
2019-05-14,0.0035034105789353218
2019-05-15,0.004282069853042983
2019-05-16,0.010055091654225676
2019-05-17,0.007600179034795124
2019-05-20,0.00958487755337857
2019-05-21,0.005913116600277777
2019-05-22,0.0030603893418189657
2019-05-23,0.001226828138156777
2019-05-24,-0.0016305113958389513
2019-05-27,0.0021393985829983413
2019-05-28,-0.0032525381432305933
2019-05-29,-0.003805242690772987
2019-05-30,-0.0014984170981840036
2019-05-31,-0.0011238545177594851
2019-06-03,-0.007776489607920781
2019-06-04,-0.009973538846365676
2019-06-05,-0.007284575228221783
2019-06-06,-0.011440024739282559
2019-06-10,-0.009579126278535806
2019-06-11,-0.0059059523072416235
2019-06-12,-0.0016163354733575476
2019-06-13,-0.0046697495877083064
2019-06-14,-0.004381147166987544
2019-06-17,-0.0033806849460726873
2019-06-18,-0.0026426520035823797
2019-06-19,-0.004163050347822023
2019-06-20,-0.006615344085489985
2019-06-21,0.00033359742805837145
2019-06-24,0.012165587248365523
2019-06-25,0.005977925626980309
2019-06-26,0.010013250958795657
2019-06-27,0.006124540411293002
2019-06-28,-0.00011165939709401052
2019-07-01,0.003361206858693313
2019-07-02,0.003483174363222749
2019-07-03,0.010825158958633944
2019-07-04,0.012390555523330255
2019-07-05,0.006243185664261653
2019-07-08,0.003904211276327154
2019-07-09,0.004365608564352712
2019-07-10,-0.0047187786166510755
2019-07-11,-0.003000755954670137
2019-07-12,0.0018234376429019598
2019-07-15,0.0018607747259643537
2019-07-16,0.0016422812428322896
2019-07-17,0.005525764420066583
2019-07-18,-0.0003773425125523748
2019-07-19,0.004230238022950495
2019-07-22,-0.0024872597641317166
2019-07-23,0.007204862424472214
2019-07-24,0.00200931720608441
2019-07-25,0.006819231869519597
2019-07-26,0.0037102721809528574
2019-07-29,0.004991097453186766
2019-07-30,0.0023792410187592275
2019-07-31,0.00022641281868229432
2019-08-01,0.006008164775517815
2019-08-02,0.006602704778239613
2019-08-05,0.003218062379901007
2019-08-06,-0.005504420624102203
2019-08-07,0.002758794192895247
2019-08-08,0.0006334622287206514
2019-08-09,0.0020415028906349553
2019-08-12,-0.006747448682262694
2019-08-13,-0.004248141123835324
2019-08-14,-0.0038371082249248276
2019-08-15,-0.010232138326265305
2019-08-16,-0.006365384746580882
2019-08-19,-0.006996428030078869
2019-08-20,-0.0047428154439887685
2019-08-21,-0.009970873566933613
2019-08-22,-0.009675323967738982
2019-08-23,-0.010768683822760361
2019-08-26,-0.021842716333600333
2019-08-27,-0.015152949704852151
2019-08-28,-0.019989630871834224
2019-08-29,-0.020538878212579787
2019-08-30,-0.0218774704778566
2019-09-02,-0.006301633897731073
2019-09-03,-0.0026388860175020103
2019-09-04,-0.004192350766693175
2019-09-05,-0.0011414476707803317
2019-09-06,0.002152590280999478
2019-09-09,0.004676981328219499
2019-09-10,0.0051191892914891
2019-09-11,0.00812084255806345
2019-09-12,0.009433352851406718
2019-09-16,0.004902641773837289
2019-09-17,0.0014650081902640236
2019-09-18,0.0003338820204327672
2019-09-19,0.0016613705072102188
2019-09-20,-0.004953837038081062
2019-09-23,-0.0036602699155507067
2019-09-24,-0.007251667779327495
2019-09-25,-0.00533190874679948
2019-09-26,-0.0049203985954354
2019-09-27,-0.00874138191811512
2019-09-30,-0.007097236565867941
2019-10-08,-0.004384415876299294
2019-10-09,-0.0050980371683871225
2019-10-10,-0.0058443075832905296
2019-10-11,0.002264979417372659
2019-10-14,-0.0013330973671046853
2019-10-15,0.002948793865614699
2019-10-16,0.007582201513046933
2019-10-17,0.00648628667422337
2019-10-18,0.009802423769312518
2019-10-21,0.005024524290802444
2019-10-22,0.003023786102496911
2019-10-23,0.0022806174885208683
2019-10-24,0.0036105249821864437
2019-10-25,-0.0002984915912015683
2019-10-28,0.011464164186799441
2019-10-29,0.008615039420209681
2019-10-30,0.009729761263863275
2019-10-31,0.01351867320593037
2019-11-01,0.004644441487602584
2019-11-04,0.001913874559278373
2019-11-05,0.004739869234164914
2019-11-06,0.002236044167894204
2019-11-07,0.00408129498298117
2019-11-08,-0.004161850176350379
2019-11-11,-0.01983001084191131
2019-11-12,-0.019104941034878226
2019-11-13,-0.019121910829801313
2019-11-14,-0.01666562597572474
2019-11-15,-0.015761093660513426
2019-11-18,-0.017287225239408063
2019-11-19,-0.00922686245181187
2019-11-20,-0.00742374525599931
2019-11-21,-0.0065711962472752555
2019-11-22,0.0036417998090886652
2019-11-25,0.016008949209531408
2019-11-26,0.014799220208035542
2019-11-27,0.007430294927138427
2019-11-28,0.010580956338187085
2019-11-29,0.008992780974286654
2019-12-02,0.008842791172322388
2019-12-03,0.002337011056000163
2019-12-04,0.002401894177175165
2019-12-05,-0.0031378628537662365
2019-12-06,-0.0037135438240042742
2019-12-09,-0.0016508160680304505
2019-12-10,-0.007189962716191708
2019-12-11,0.0037862819804832804
2019-12-12,-0.005885591557251893
2019-12-13,-0.011693702462861671
2019-12-16,-0.01414230043935043
2019-12-17,-0.011632523284390375
2019-12-18,-0.008869534359728395
2019-12-19,-0.00892351290635288
2019-12-20,-0.011632090519064154
2019-12-23,-0.006267765551287441
2019-12-24,0.0015748420587019356
2019-12-25,-0.003288512397616048
2019-12-26,0.004175602495330791
2019-12-27,0.01865473366619387
2019-12-30,0.0128167263154534
2019-12-31,0.0231104021730412
2020-01-02,0.017135536897800712
2020-01-03,0.017486860154205783
2020-01-06,0.02496060739135225
2020-01-07,0.03572936600374978
2020-01-08,0.034636512482013604
2020-01-09,0.04226007559447867
2020-01-10,0.05334666289187051
2020-01-13,0.04718837212446544
2020-01-14,0.05172668863261474
2020-01-15,0.03542521208954393
2020-01-16,0.04344883934725138
2020-01-17,0.03755741498652232
2020-01-20,0.037492688571495764
2020-01-21,0.04141034349674549
2020-01-22,0.0443850957795253
2020-01-23,0.02943186831169003
2020-02-03,0.015055156748503565
2020-02-04,0.0068184862831600634
2020-02-05,0.014755771907501505
2020-02-06,0.021268926566077644
2020-02-07,0.022483739206263315
2020-02-10,0.04267920621413711
2020-02-11,0.044170423574536696
2020-02-12,0.030090948100471564
2020-02-13,0.0232658572440394
2020-02-14,0.028336155047585927
2020-02-17,0.018860355535104963
2020-02-18,0.016120443659052436
2020-02-19,0.01453052821171616
2020-02-20,0.006432849901721836
2020-02-21,0.004354640505618583
2020-02-24,-0.00856079747906377
2020-02-25,-0.018790719232963406
2020-02-26,-0.00366435684513915
2020-02-27,0.003860362342421958
2020-02-28,0.02179019684530624
2020-03-02,0.017312497688317927
2020-03-03,0.014738603050432841
2020-03-04,0.019393300223786214
2020-03-05,0.039604449783535126
2020-03-06,0.022744978963483722
2020-03-09,0.017811114758108648
2020-03-10,0.0017980711042978187
2020-03-11,0.0023613845563421193
2020-03-12,-0.0039006325562384314
2020-03-13,-0.02285141822530096
2020-03-16,-0.014904512200807851
2020-03-17,-0.014477058101897821
2020-03-18,-0.010398695569057256
2020-03-19,-0.01699944496173785
2020-03-20,-0.0027021009653003377
2020-03-23,0.003650211739449405
2020-03-24,0.00846280383144861
2020-03-25,0.008478744135919402
2020-03-26,0.0013152834266535376
2020-03-27,0.0026161417119787474
2020-03-30,0.007389456110538803
2020-03-31,0.008112558557190432
2020-04-01,0.010140219075564828
2020-04-02,0.007554031275648847
2020-04-03,0.0040034855462731354
2020-04-07,0.007252226790511749
2020-04-08,0.010052446676588708
2020-04-09,0.010469224732602872
2020-04-10,0.012153784526651161
2020-04-13,0.022298225106087883
2020-04-14,0.029935273266095744
2020-04-15,0.019301824729971963
2020-04-16,0.013084744023912496
2020-04-17,0.022122755449046426
2020-04-20,0.019845647272575297
2020-04-21,0.01831519817476079
2020-04-22,0.007847783306272626
2020-04-23,0.01443851063642634
2020-04-24,0.01762045461800251
2020-04-27,0.019818205753504212
2020-04-28,0.014347018942154335
2020-04-29,0.011883042919395206
2020-04-30,0.01849890962940441
2020-05-06,0.012093577762762826
2020-05-07,0.006289639181052065
2020-05-08,0.00977557000587164
2020-05-11,0.012955052788039777
2020-05-12,0.009185075679708662
2020-05-13,0.00032655684451283334
2020-05-14,-0.008796775351740295
2020-05-15,-0.008524632897523756
2020-05-18,0.0005508436170150646
2020-05-19,-0.0069267603084544205
2020-05-20,-0.004988149043101355
2020-05-21,-0.0026032427922352518
2020-05-22,-0.003777326108473259
2020-05-25,-0.0056286074087679785
2020-05-26,-0.007452490651118741
2020-05-27,0.005730033294956239
2020-05-28,0.010213889299851876
2020-05-29,0.00927693400051801
2020-06-01,0.011258047795830534
2020-06-02,0.009935638645991448
2020-06-03,0.008322255940870058
2020-06-04,0.002937314130199483
2020-06-05,0.006056607021134006
2020-06-08,0.019411211628039743
2020-06-09,0.023683124474875545
2020-06-10,0.019752920808592242
2020-06-11,0.024821456042964665
2020-06-12,0.01953381138046518
2020-06-15,0.010901644383387046
2020-06-16,-0.0003789885389980513
2020-06-17,-0.007249674025520403
2020-06-18,-0.020478345179314947
2020-06-19,-0.02103496170906638
2020-06-22,-0.04388580628849592
2020-06-23,-0.04879561186355032
2020-06-24,-0.024344644987039962
2020-06-29,-0.030041861663034408
2020-06-30,-0.02653142997688783
2020-07-01,-0.00886634252075609
2020-07-02,-0.009121753952556065
2020-07-03,-0.010428535337900523
2020-07-06,-0.022104176702949972
2020-07-07,-0.018240938869896577
2020-07-08,-0.01849555608597237
2020-07-09,-0.024374720876865583
2020-07-10,-0.03099114973672591
2020-07-13,-0.028791846304607994
2020-07-14,-0.028555067863839483
2020-07-15,-0.019193006961768448
2020-07-16,-0.009098805106344032
2020-07-17,0.005557745401114759
2020-07-20,0.008962215359212282
2020-07-21,0.00629912545803636
2020-07-22,0.00974786664620621
2020-07-23,0.00965262258794241
2020-07-24,0.019506176707222624
2020-07-27,0.016866180255116676
2020-07-28,0.005937727924886647
2020-07-29,-0.01626201014946696
2020-07-30,-0.024647353170979647
2020-07-31,-0.03073260156759481
2020-08-03,-0.031238858440981326
2020-08-04,-0.023611675464465475
2020-08-05,-0.03869686147863434
2020-08-06,-0.0342842565973372
2020-08-07,-0.030640086426740924
2020-08-10,-0.023713287806127335
2020-08-11,-0.016549528987633948
2020-08-12,-0.01024807036787541
2020-08-13,-0.00031320254323279235
2020-08-14,0.00022336971558581907
2020-08-17,-0.008804580080379475
2020-08-18,-0.005095039493006943
2020-08-19,0.006815055431437024
2020-08-20,0.002847111740321531
2020-08-21,0.004422199453812876
2020-08-24,-0.0033456261503436065
2020-08-25,-0.00501528666895637
2020-08-26,-0.008312090789664585
2020-08-27,-0.01775134435727315
2020-08-28,-0.019436039803366372
2020-08-31,-0.02189976415828747
2020-09-01,-0.018002309695082284
2020-09-02,-0.02981079997272047
2020-09-03,-0.02749930769138552
2020-09-04,-0.025888716445785033
2020-09-07,-0.013290743522248927
2020-09-08,-0.0014750632369833361
2020-09-09,0.012877254976015388
2020-09-10,0.014250234385394404
2020-09-11,0.00925774439778981
2020-09-14,0.004725238613374287
2020-09-15,0.007119282136865706
2020-09-16,0.015441577797222635
2020-09-17,0.015787602534290613
2020-09-18,0.023474232107622242
2020-09-21,0.029353890580254276
2020-09-22,0.019500773459775075
2020-09-23,0.013343121042767886
2020-09-24,0.0038754492603341184
2020-09-25,-0.004528424644289607
2020-09-28,0.01014707187844149
2020-09-29,-0.003965222902262321
2020-09-30,-0.005565508348894323
2020-10-09,-0.012286164384898397
2020-10-12,-0.014741730397284054
2020-10-13,-0.011069657375110648
2020-10-14,-0.00797357617570327
2020-10-15,0.0023525142536352595
2020-10-16,0.0030464220793555846
2020-10-19,0.007739281026045427
2020-10-20,-0.00020796751657908277
2020-10-21,0.0016479722432223326
2020-10-22,-0.006840167201214182
2020-10-23,-0.0025192809980746945
2020-10-26,-0.0053674343684544795
2020-10-27,-0.019296035206292896
2020-10-28,-0.034157808351063274
2020-10-29,-0.03581790931582109
2020-10-30,-0.037609840450199744
2020-11-02,-0.049350156413587185
2020-11-03,-0.04453507860911998
2020-11-04,-0.04908440075978615
2020-11-05,-0.04024370247575011
2020-11-06,-0.033394234422133934
2020-11-09,-0.04544023293347875
2020-11-10,-0.040808586938292965
2020-11-11,-0.025213758452119536
2020-11-12,-0.02787263598474961
2020-11-13,-0.03420712439520655
2020-11-16,-0.025756100537272397
2020-11-17,-0.017211278813445557
2020-11-18,-0.010072103656893146
2020-11-19,-0.0046979791762295844
2020-11-20,-0.0007158277571216298
2020-11-23,0.006684342228476456
2020-11-24,0.01521343608303171
2020-11-25,0.01377617664372939
2020-11-26,0.012763774737917788
2020-11-27,0.01833137289733687
2020-11-30,0.01933118860685936
2020-12-01,0.015922567835620335
2020-12-02,0.008573724859580268
2020-12-03,0.004675846811436003
2020-12-04,-0.0002537927962326294
2020-12-07,0.0034020462988530527
2020-12-08,0.005022203900258804
2020-12-09,0.005044724105291521
2020-12-10,0.01071870673182958
2020-12-11,0.013837020257932136
2020-12-14,0.013617611978418053
2020-12-15,0.004642129326943534
2020-12-16,0.004689725858966683
2020-12-17,0.0053072057008129205
2020-12-18,0.012653917314618675
2020-12-21,0.020748407969682112
2020-12-22,0.012747159413339142
2020-12-23,0.02622849946452109
2020-12-24,0.016149069169890354
2020-12-25,0.0016643952689462185
2020-12-28,0.0049842322083484755
2020-12-29,0.011090852804745484
2020-12-30,-0.002570275093095112
2020-12-31,-0.002353785013361056
2021-01-04,-0.019606886922460053
2021-01-05,-0.04762518387667588
2021-01-06,-0.02607271122380677
2021-01-07,-0.02868589240514452
2021-01-08,-0.0025362030972729856
2021-01-11,0.009581288367450438
2021-01-12,-0.009940022806745519
2021-01-13,-0.005252756543737169
2021-01-14,0.012361531265045054
2021-01-15,0.014062479860555956
2021-01-18,0.005719991470135025
2021-01-19,0.031110353643530826
2021-01-20,0.013889970505883075
2021-01-21,0.016052593120042414
2021-01-22,0.0061079887362097025
2021-01-25,-0.006037138091345581
2021-01-26,0.013772920378814344
2021-01-27,0.02507704378824262
2021-01-28,0.0033224924863226937
2021-01-29,-0.01767817643119396
2021-02-01,-0.04673118968645228
2021-02-02,-0.053905317098495366
2021-02-03,-0.0565123768978036
2021-02-04,-0.07627255603965229
2021-02-05,-0.06734400288946756
2021-02-08,-0.06851919287156229
2021-02-09,-0.06806926513627515
2021-02-10,-0.07550677178157592
2021-02-18,-0.06005732030331713
2021-02-19,-0.048898234615144524
2021-02-22,-0.05342146944105783
2021-02-23,-0.05657447031027918
2021-02-24,-0.03021641019941593
2021-02-25,-0.02118257774020514
2021-02-26,-0.026852492394659692
2021-03-01,-0.03432575511721621
2021-03-02,-0.019960905466341643
2021-03-03,-0.014655757041213982
2021-03-04,-0.005646284257130266
2021-03-05,-0.008652230093613524
2021-03-08,-0.0003854558441055287
2021-03-09,0.004222241918237404
2021-03-10,-0.007900278802214129
2021-03-11,-0.005780852931790047
2021-03-12,-0.004957874558623215
2021-03-15,0.004729011536445001
2021-03-16,0.005103749106426659
2021-03-17,0.0038528653374946373
2021-03-18,0.007487265162976806
2021-03-19,0.01716070749806829
2021-03-22,0.018926498985709854
2021-03-23,0.008974730438483122
2021-03-24,0.015043742712024855
2021-03-25,0.0055581252370392395
2021-03-26,0.0006161405710231303
2021-03-29,0.01107476560499896
2021-03-30,0.0020319346483247437
2021-03-31,0.000158772237474571
2021-04-01,-0.009338089446877034
2021-04-02,-0.00918394883169366
2021-04-06,-0.0037606859777252278
2021-04-07,0.006058531317749548
2021-04-08,0.0017217536951045472
2021-04-09,0.011560572156347409
2021-04-12,0.017880170370441536
2021-04-13,0.02167779472499818
2021-04-14,0.02283205918892396
2021-04-15,0.02357036945630241
2021-04-16,0.03732006277738935
2021-04-19,0.026522548915813352
2021-04-20,0.01604536438906761
2021-04-21,0.014037958789063557
2021-04-22,0.019049014067150965
2021-04-23,0.009656559433319722
2021-04-26,0.013622132979699383
2021-04-27,0.010392950586968127
2021-04-28,0.01753370307836087
2021-04-29,0.012852142285874196
2021-04-30,0.011343076800214928
2021-05-06,0.016273290555937653
2021-05-07,0.02164474073969719
2021-05-10,0.013997037211669276
2021-05-11,0.011736740850664597
2021-05-12,0.0005771046466312088
2021-05-13,7.839391671211199e-05
2021-05-14,0.001457691580618644
2021-05-17,0.004599131210112694
2021-05-18,0.008383027178374997
2021-05-19,0.0008680210295836134
2021-05-20,0.0003169019637276685
2021-05-21,0.0035795417533351255
2021-05-24,0.006625235072492158
2021-05-25,-0.003585268212160636
2021-05-26,0.00388081320378482
2021-05-27,0.0035676237326075443
2021-05-28,0.0014639388743213615
2021-05-31,-0.002207834201386266
2021-06-01,-0.01233664190847178
2021-06-02,0.006751341146550833
2021-06-03,0.010872765217013849
2021-06-04,0.009236814334071154
2021-06-07,0.006575526204399814
2021-06-08,0.012448283134861661
2021-06-09,0.005673890171476318
2021-06-10,0.006787262063108318
2021-06-11,0.012246232016078605
2021-06-15,0.011297550258261086
2021-06-16,0.030849212878327516
2021-06-17,0.017518718779274665
2021-06-18,0.0114496528159422
2021-06-21,0.01243061654811394
2021-06-22,0.007357872924783524
2021-06-23,0.02228974683904979
2021-06-24,0.034467781798417266
2021-06-25,0.025946307018521342
2021-06-28,0.027672910189162472
2021-06-29,0.019307027692710536
2021-06-30,0.015711323284121892
2021-07-01,0.020709639765414484
2021-07-02,0.020743096209075208
2021-07-05,0.018323484767988247
2021-07-06,0.03183817611120074
2021-07-07,0.03379471818669956
2021-07-08,0.017104192261025972
2021-07-09,0.0175897340949094
2021-07-12,0.012598949886361357
2021-07-13,0.029290058184446043
2021-07-14,0.02879072085647856
2021-07-15,0.03440009008891676
2021-07-16,0.04386713342002715
2021-07-19,0.03906701505079874
2021-07-20,0.022075046117005306
2021-07-21,0.021873813771636302
2021-07-22,0.03373509282979044
2021-07-23,0.035095279557584784
2021-07-26,0.012581741406758272
2021-07-27,0.014757649147154356
2021-07-28,0.008307768880447597
2021-07-29,-0.006658059030017545
2021-07-30,-0.011736505492014493
2021-08-02,-0.014044784787673629
2021-08-03,-0.011093680987012173
2021-08-04,-0.02858105844727693
2021-08-05,-0.019495071339427593
2021-08-06,-0.024979828560211994
2021-08-09,-0.005420916236301792
2021-08-10,0.0014707391209177775
2021-08-11,0.00530586942774327
2021-08-12,0.005214983887427007
2021-08-13,0.010400733283240818
2021-08-16,0.03175741454993364
2021-08-17,0.029612091254079008
2021-08-18,0.0036535576214278033
2021-08-19,-0.008199426951898292
2021-08-20,-0.01600388614624751
2021-08-23,-0.02525985102517872
2021-08-24,-0.01973601734427027
2021-08-25,-0.02928220630813392
2021-08-26,-0.02650166733798144
2021-08-27,-0.02614954408606642
2021-08-30,-0.036445290869323646
2021-08-31,-0.01833356539237557
2021-09-01,0.002514055811728288
2021-09-02,0.0011668558528450568
2021-09-03,0.008331374313307306
2021-09-06,0.011015520100977987
2021-09-07,0.0038066130282297956
2021-09-08,0.012914851787186814
2021-09-09,-0.00656587090997084
2021-09-10,-0.009681577061251206
2021-09-13,-0.016755529310536654
2021-09-14,-0.015621153276078825
2021-09-15,-0.0327872116409163
2021-09-16,-0.03236913017010387
2021-09-17,-0.025128149707535595
2021-09-22,-0.036886850076080904
2021-09-23,-0.03490439632567195
2021-09-24,-0.015665528473918507
2021-09-27,0.0042289732837951935
2021-09-28,-0.005624505397410913
2021-09-29,-0.005260188593260242
2021-09-30,-0.0037686075259177887
2021-10-08,-0.006425342528182286
2021-10-11,0.003828545733712359
2021-10-12,0.004514090793297523
2021-10-13,0.008681101771312661
2021-10-14,0.0004344791457639753
2021-10-15,0.0001289492725167667
2021-10-18,-0.008316553573972287
2021-10-19,-0.003295811923578534
2021-10-20,0.001057410999331803
2021-10-21,-0.0027562878614273856
2021-10-22,-0.0008296829721818125
2021-10-25,-0.001374188184666593
2021-10-26,-0.002442040809380333
2021-10-27,-0.01352301084510292
2021-10-28,-0.010122108778904732
2021-10-29,-0.010047266221676555
2021-11-01,-0.024638185099874123
2021-11-02,-0.02508788272500008
2021-11-03,-0.018254715467302864
2021-11-04,-0.010845784681051247
2021-11-05,-0.003143713155377729
2021-11-08,-0.002847815752007493
2021-11-09,-0.002325395382591522
2021-11-10,0.003183351961915352
2021-11-11,0.0014422449638682236
2021-11-12,0.011488343831358742
2021-11-15,0.030918442549909983
2021-11-16,0.0457226916475368
2021-11-17,0.03525425151078004
2021-11-18,0.02669330016432985
2021-11-19,0.029020112874265695
2021-11-22,0.020449946435575718
2021-11-23,0.00929914129438503
2021-11-24,0.012102824229951268
2021-11-25,0.005803381139541085
2021-11-26,0.0002555287814397268
2021-11-29,-0.009217947124007845
2021-11-30,-0.01499959787292522
2021-12-01,-0.013257180990918582
2021-12-02,-0.008271243079968587
2021-12-03,-0.009868384241494586
2021-12-06,-0.0130840949259876
2021-12-07,-0.008525918428527027
2021-12-08,-0.0038491405493190738
2021-12-09,0.0042078304341871715
2021-12-10,-0.0024156221143711264
2021-12-13,-0.005628489826001042
2021-12-14,-0.004873795921891992
2021-12-15,-0.006498137943457332
2021-12-16,-0.0033477249327820476
2021-12-17,-0.008446202417063094
2021-12-20,-0.016173430880798877
2021-12-21,-0.011640516957968767
2021-12-22,-0.007863026901563458
2021-12-23,-0.016014451689769095
2021-12-24,-0.018422393409919788
2021-12-27,-0.017035987995935198
2021-12-28,-0.021399845024964156
2021-12-29,-0.022076279030344672
2021-12-30,-0.02745924665199558
2021-12-31,-0.017522813545907526
2022-01-04,-0.018632373719359115
2022-01-05,-0.015602178717500675
2022-01-06,-0.031749338369930616
2022-01-07,-0.012802169729825529
2022-01-10,-0.00045344725403649935
2022-01-11,0.005684565539486486
2022-01-12,0.012473305891813214
2022-01-13,0.01883052234860701
2022-01-14,0.012099597974960838
2022-01-17,-0.002615896355634785
2022-01-18,-0.008281075543921025
2022-01-19,-0.012447815060954992
2022-01-20,-0.0017434337632236535
2022-01-21,-0.009758878199521651
2022-01-24,-0.010050593120841354
2022-01-25,-0.004884096199762036
2022-01-26,-0.011006062317179674
2022-01-27,-0.014909278955924362
2022-01-28,-0.010510787780554452
2022-02-07,0.0022491740833716738
2022-02-08,0.015945598222094192
2022-02-09,0.018356609695548913
2022-02-10,0.032409476359547905
2022-02-11,0.029675113886776953
2022-02-14,0.03286745613936026
2022-02-15,0.02771413588296979
2022-02-16,0.03894521124380461
2022-02-17,0.03698235879168708
2022-02-18,0.042592584012674975
2022-02-21,0.04256151515182484
2022-02-22,0.04030742605725151
2022-02-23,0.04880225030200948
2022-02-24,0.030732705788594186
2022-02-25,0.038633778579239456
2022-02-28,0.04750731064543686
2022-03-01,0.06585407005130053
2022-03-02,0.04545821707923997
2022-03-03,0.022874771323978763
2022-03-04,0.017366488922104323
2022-03-07,0.012083308190887711
2022-03-08,0.0007300786747219869
2022-03-09,-0.023966214853595895
2022-03-10,-0.015838771141252667
2022-03-11,-0.005957265627571748
2022-03-14,-0.020870350866112098
2022-03-15,-0.04231375384191139
2022-03-16,-0.027071462091664927
2022-03-17,-0.0019527062004656816
2022-03-18,0.0009579363124592221
2022-03-21,-0.004909673983924168
2022-03-22,0.0057499211163090595
2022-03-23,0.020678172676105402
2022-03-24,0.024126728793852265
2022-03-25,0.01721501989044685
2022-03-28,0.016570645839588262
2022-03-29,0.013354590477074069
2022-03-30,0.020613895610330217
2022-03-31,0.016143954430803242
2022-04-01,0.01736785083566783
2022-04-06,0.010543314482846455
2022-04-07,0.009729766349695676
2022-04-08,0.009312095414382965
2022-04-11,0.0068827911756413895
2022-04-12,0.016647516441667218
2022-04-13,0.008530952611647005
2022-04-14,0.005122570638358442
2022-04-15,-0.0076486496196563995
2022-04-18,-0.014416544914416352
2022-04-19,-0.017073693884436907
2022-04-20,-0.008394921427052587
2022-04-21,-0.004761709235300534
2022-04-22,-0.007198375054483388
2022-04-25,-0.0026604087448194105
2022-04-26,0.00965769882060831
2022-04-27,0.006596323835014677
2022-04-28,0.0020345950888339126
2022-04-29,0.012853880188851564
2022-05-05,0.017060615016913146
2022-05-06,-0.0014447474758215312
2022-05-09,-0.0013448340586288132
2022-05-10,0.004395439034054545
2022-05-11,0.005774871778995198
2022-05-12,0.010126987143455446
2022-05-13,0.009179398584132963
2022-05-16,0.0030573689772927584
2022-05-17,-0.002591410045013051
2022-05-18,0.0006444767103713396
2022-05-19,0.0020814032740372884
2022-05-20,0.007931990611348756
2022-05-23,0.0014003837966865343
2022-05-24,-0.011794343973560668
2022-05-25,-0.009335427892949964
2022-05-26,-0.012766963316293095
2022-05-27,0.007368541938400322
2022-05-30,0.011594457146290163
2022-05-31,0.00017922719242437907
2022-06-01,-0.0003243642831201876
2022-06-02,-0.0019622934127762545
2022-06-06,-0.0014033963248794301
2022-06-07,-0.00430808047409036
2022-06-08,0.012657340927571283
2022-06-09,0.02556225990654793
2022-06-10,0.01800392841652343
2022-06-13,0.0001289570827233688
2022-06-14,0.0011859486644520065
2022-06-15,0.005508285484604653
2022-06-16,0.002208840323189999
2022-06-17,0.0016039258674027737
2022-06-20,0.0007925004722756854
2022-06-21,0.011762748578411822
2022-06-22,0.011311781635949113
2022-06-23,0.012618138072636512
2022-06-24,0.007239777851518258
2022-06-27,0.00821918465009937
2022-06-28,0.005237398887306302
2022-06-29,0.020056919912621346
2022-06-30,0.022151615459611643
2022-07-01,0.02391406732609765
2022-07-04,0.013263271150174321
2022-07-05,0.0038319016475505292
2022-07-06,-0.004108932313394983
2022-07-07,-0.011176662813213906
2022-07-08,-0.0033385569481522402
2022-07-11,-0.005921322000585153
2022-07-12,-0.004880794905850833
2022-07-13,-0.006083153076571712
2022-07-14,-0.019401235657139197
2022-07-15,-0.02283139139474244
2022-07-18,-0.00604274705382161
2022-07-19,0.00971186382971196
2022-07-20,0.012518342086796884
2022-07-21,0.007984888086884676
2022-07-22,0.002390966906155311
2022-07-25,0.009431370432551753
2022-07-26,0.021248322604998787
2022-07-27,0.014553067209817626
2022-07-28,0.009721526126678367
2022-07-29,-0.001199609829139095
2022-08-01,0.002394788726835995
2022-08-02,0.0044311759043478074
2022-08-03,0.0034453763402881657
2022-08-04,0.015023321290533263
2022-08-05,0.01347688875981938
2022-08-08,0.010643049631689487
2022-08-09,0.008257309571083272
2022-08-10,-0.005383247781114444
2022-08-11,-0.0045430411515718205
2022-08-12,-0.0038825654876410935
2022-08-15,-0.012219247192223294
2022-08-16,-0.02110674927097883
2022-08-17,-0.02950577249146317
2022-08-18,-0.036974462797385754
2022-08-19,-0.024827228852224794
2022-08-22,-0.03133585713235073
2022-08-23,-0.030928342585445072
2022-08-24,-0.016306612274267905
2022-08-25,-0.0051646671883710665
2022-08-26,-0.005738404648273444
2022-08-29,-0.003504688956809129
2022-08-30,0.002019616052698913
2022-08-31,0.005602252687219308
2022-09-01,0.002360632314456261
2022-09-02,0.0040093921183381835
2022-09-05,0.006536853802012712
2022-09-06,0.00447487939896931
2022-09-07,0.005240625436566844
2022-09-08,0.0027124819903115785
2022-09-09,0.013684507112201885
2022-09-13,0.00541043296768548
2022-09-14,0.00614358116356345
2022-09-15,0.016023173665366236
2022-09-16,0.013469233672060814
2022-09-19,0.009605947116284298
2022-09-20,0.011828761230454794
2022-09-21,0.010463144853654984
2022-09-22,0.001442346591276955
2022-09-23,-0.0025584699193847496
2022-09-26,-0.011568484457850317
2022-09-27,0.0037455174560096383
2022-09-28,0.013575081740894914
2022-09-29,0.00586826970434565
2022-09-30,0.0063040017557515916
2022-10-10,0.02669306395311466
2022-10-11,0.01908251920228921
2022-10-12,0.008049220048861595
2022-10-13,-0.0015687952406472916
2022-10-14,0.01477212364410195
2022-10-17,0.015438517862099356
2022-10-18,0.0037685919063008173
2022-10-19,-0.002323954054917629
2022-10-20,0.0016279753992194165
2022-10-21,-0.003504763059999366
2022-10-24,-0.019447191376147255
2022-10-25,-0.024320271807680954
2022-10-26,-0.020124686127846573
2022-10-27,-0.010477520154249118
2022-10-28,-0.02856170791359563
2022-10-31,-0.03731251374236453
2022-11-01,-0.0294047502935458
2022-11-02,-0.02375232199948202
2022-11-03,-0.027822709594994045
2022-11-04,-0.022677116140196484
2022-11-07,-0.021337218882044866
2022-11-08,-0.02339837772217916
2022-11-09,-0.018743632533891174
2022-11-10,-0.020874292760548353
2022-11-11,-0.016104759612604234
2022-11-14,-0.012665476508796559
2022-11-15,-0.012567155935600037
2022-11-16,-0.008898796647918499
2022-11-17,-0.007798181271097083
2022-11-18,-0.0055729820667159355
2022-11-21,-0.009428810743795552
2022-11-22,0.0005187484118390796
2022-11-23,0.004375405000611208
2022-11-24,0.0014999506722947406
2022-11-25,0.0022946967338541013
2022-11-28,0.003482802186004774
2022-11-29,0.0011538867874587144
2022-11-30,0.002552302535690448
2022-12-01,0.005953346586865205
2022-12-02,0.0132848555301186
2022-12-05,0.006706831799087501
2022-12-06,0.008388112922085328
2022-12-07,0.011809042275811407
2022-12-08,0.011127811728948195
2022-12-09,0.010782483588043054
2022-12-12,0.004626497240694919
2022-12-13,0.003748597487598402
2022-12-14,0.006017115136655794
2022-12-15,0.007347484110622089
2022-12-16,0.002624479000623783
2022-12-19,-0.001887813924540657
2022-12-20,0.005511742101641338
2022-12-21,-0.000872514473131282
2022-12-22,-0.011677518377081149
2022-12-23,-0.007819250663724242
2022-12-26,-0.007750280073216126
2022-12-27,-0.007313789871986477
2022-12-28,-0.008588343776944434
2022-12-29,-0.007699323688553278
2022-12-30,-0.01376409501976629
2023-01-03,-0.010170503344924697
2023-01-04,-0.014408616574887366
2023-01-05,-0.01550069047511923
2023-01-06,-0.01256094098678652
2023-01-09,-0.015019995727787457
2023-01-10,-0.010167318379580782
2023-01-11,-0.011964209066736849
2023-01-12,-0.008477997932300911
2023-01-13,-0.01677021456835842
2023-01-16,-0.018650836170040465
2023-01-17,-0.016731555318891277
2023-01-18,-0.016733898336099968
2023-01-19,-0.01272877170550684
2023-01-20,-0.017423275520675102
2023-01-30,-0.01687502016171713
2023-01-31,-0.013506648747889961
2023-02-01,-0.017085848247575766
2023-02-02,-0.01348362628486368
2023-02-03,-0.01392099270966637
2023-02-06,-0.009349776380347542
2023-02-07,-0.012954909960234767
2023-02-08,-0.010356954257970685
2023-02-09,-0.01616899998789301
2023-02-10,-0.010338546325315473
2023-02-13,-0.012664389035788814
2023-02-14,-0.010977485373796305
2023-02-15,-0.006591558356715903
2023-02-16,-0.011516898435880987
2023-02-17,-0.005047857835918289
2023-02-20,-0.002018870052515145
2023-02-21,-0.002430529711253541
2023-02-22,-0.002183952482642933
2023-02-23,-0.0023537624863495463
2023-02-24,0.00245540767907018
2023-02-27,0.01210299514215826
2023-02-28,0.012480735788289019
2023-03-01,0.0035429845771087383
2023-03-02,0.003336505495125989
2023-03-03,0.020265786763997717
2023-03-06,0.021727165155067216
2023-03-07,0.021217962453914704
2023-03-08,0.018370166344588754
2023-03-09,0.02090422936074486
2023-03-10,0.02145520293297361
2023-03-13,0.017756907402577106
2023-03-14,0.00745140474923256
2023-03-15,0.008730419108998043
2023-03-16,0.009993447510880656
2023-03-17,0.004214773800416412
2023-03-20,0.00950786734777885
2023-03-21,0.014158709027233936
2023-03-22,0.014973015022421595
2023-03-23,0.01555266377122674
2023-03-24,0.006179246937492111
2023-03-27,0.009220811927985097
2023-03-28,0.024062286843235185
2023-03-29,0.013069520703265326
2023-03-30,0.01905267055722132
2023-03-31,0.002621924059694535
2023-04-03,-0.012049026892155146
2023-04-04,-0.011380293895767902
2023-04-06,0.004250244851575799
2023-04-07,-0.013372772589337282
2023-04-10,0.01017618489758767
2023-04-11,0.006602180287785749
2023-04-12,-0.025582635525192743
2023-04-13,-0.025501591710716632
2023-04-14,-0.011464908581036843
2023-04-17,-0.0019824409709364617
2023-04-18,-0.0020230846160189525
2023-04-19,-0.0001368603610948961
2023-04-20,-0.021598278470941035
2023-04-21,-0.01381178741960627
2023-04-24,-0.021284401217109953
2023-04-25,-0.029203523801459998
2023-04-26,-0.01665685881590824
2023-04-27,-0.017187184788193036
2023-04-28,-0.021498350029993465
2023-05-04,-0.01607172096079619
2023-05-05,-0.011985388069904995
2023-05-08,-0.03093359993951775
2023-05-09,-0.03638432990848223
2023-05-10,-0.024715574671535862
2023-05-11,-0.018104184043233863
2023-05-12,-0.003308571226262916
2023-05-15,0.006362232485831405
2023-05-16,0.027955119915847426
2023-05-17,0.03442546608463166
2023-05-18,0.022904543364980868
2023-05-19,0.015277397577898392
2023-05-22,0.02663157185938827
2023-05-23,0.026838221773389324
2023-05-24,0.024526102839192952
2023-05-25,0.024454091168222385
2023-05-26,0.020041218388887373
2023-05-29,0.010542291261721019
2023-05-30,0.009193245517304462
2023-05-31,0.002934742454775402
2023-06-01,-0.006253509985954274
2023-06-02,0.010056999470079563
2023-06-05,0.006690808081955366
2023-06-06,0.012637150779645001
2023-06-07,0.005466758925465446
2023-06-08,0.0010901632008077419
2023-06-09,-0.004869075274201269
2023-06-12,-0.00854890492055046
2023-06-13,-0.011731774985758834
2023-06-14,-0.016634807505431486
2023-06-15,-0.012849777432630499
2023-06-16,-0.015383779438704025
2023-06-19,-0.02720194770220421
2023-06-20,-0.027086611614775456
2023-06-21,-0.02206330001636643
2023-06-26,-0.017382065101836895
2023-06-27,-0.013347847852175583
2023-06-28,-0.013623888439511116
2023-06-29,-0.01881025822716338
2023-06-30,-0.008385541708361532
2023-07-03,0.0002506720963084499
2023-07-04,-0.0075297039594141215
2023-07-05,-0.006378175125433068
2023-07-06,-0.023629645174515858
2023-07-07,-0.022559960850753413
2023-07-10,-0.014826283321562085
2023-07-11,-0.020354785130248132
2023-07-12,-0.01929414113633787
2023-07-13,-0.01853200512696598
2023-07-14,-0.028260523512291105
2023-07-17,-0.03393414925543342
2023-07-18,-0.017582190639920576
2023-07-19,-0.015133097232473998
2023-07-20,-0.013851153672748945
2023-07-21,-0.0023006980817188508
2023-07-24,0.0020076169163625417
2023-07-25,0.00646084916642549
2023-07-26,0.0066466530849724394
2023-07-27,0.008074171999615357
2023-07-28,0.007302090161922129
2023-07-31,0.006028207808106492
2023-08-01,0.00702939308352192
2023-08-02,0.003478588743673891
2023-08-03,0.005093539999166959
2023-08-04,0.001696025407704943
2023-08-07,0.0017481332923613216
2023-08-08,0.007279419251526115
2023-08-09,0.011647156563382527
2023-08-10,0.012949234862404242
2023-08-11,0.015362939104236702
2023-08-14,0.01810758466363897
2023-08-15,0.005950149013718183
2023-08-16,0.0028183166902544256
2023-08-17,0.002437643343313617
2023-08-18,0.002982067160341591
2023-08-21,0.002396933959789127
2023-08-22,-0.008830830850711482
2023-08-23,-0.0030874375520408767
2023-08-24,0.0006330567974319268
2023-08-25,0.006575101445674407
2023-08-28,0.005247459423469833
2023-08-29,0.0003024111197252981
2023-08-30,-0.0058071431477961805
2023-08-31,-0.007669470330463351
2023-09-01,-0.00792763441605283
2023-09-04,-0.007679116099339852
2023-09-05,-0.004410983100802006
2023-09-06,-0.011313070624087644
2023-09-07,-0.003945562655429738
2023-09-08,-0.003605711076463742
2023-09-11,-0.005216814921305331
2023-09-12,0.0015883107007829862
2023-09-13,0.0008155512293982672
2023-09-14,0.009028815868671786
2023-09-15,0.008820822855217417
2023-09-18,0.009084318580661178
2023-09-19,0.006221416796633895
2023-09-20,0.003771969606535432
2023-09-21,0.0051406430970322185
2023-09-22,0.004261796682443895
2023-09-25,0.007993352821153148
2023-09-26,0.005318266661849969
2023-09-27,0.013242861304266756
2023-09-28,0.009432161328799496
2023-10-09,0.009840210578990483
2023-10-10,0.007949665651985141
2023-10-11,0.005781719642389389
2023-10-12,0.0062836375551462015
2023-10-13,-9.87675904239732e-07
2023-10-16,0.0010226145984342178
2023-10-17,0.0028662267643763256
2023-10-18,0.002172906567333522
2023-10-19,-0.003079973478885817
2023-10-20,-0.0010098231663510232
2023-10-23,-0.005433049126428474
2023-10-24,-0.004590148518928264
2023-10-25,-0.004281312353104
2023-10-26,-0.0035490107847126195
2023-10-27,0.008852317492795908
2023-10-30,0.008309924143192328
2023-10-31,0.008910921496757282
2023-11-01,0.007650567166526082
2023-11-02,0.006751703813664156
2023-11-03,0.008336702683918116
2023-11-06,0.004796561050070842
2023-11-07,-0.0034283617862514116
2023-11-08,-0.009523987074157412
2023-11-09,-0.005403934667823089
2023-11-10,-0.01100040768322154
2023-11-13,-0.007649390543582685
2023-11-14,-0.007195805420117399
2023-11-15,-0.005622063456295012
2023-11-16,-0.00814287644823561
2023-11-17,-0.0042504046489601245
2023-11-20,-0.00495727001369041
2023-11-21,-0.0028445277940413252
2023-11-22,0.0007100296074780965
2023-11-23,0.0025662652180651613
2023-11-24,0.014312168860259425
2023-11-27,0.010939425277381577
2023-11-28,0.010734055695562393
2023-11-29,0.007219943809136809
2023-11-30,0.013262336625069404
2023-12-01,0.009831927866524811
2023-12-04,0.004873175632741682
2023-12-05,0.005240578657094165
2023-12-06,0.004195792777677749
2023-12-07,-0.00194298048044525
2023-12-08,-0.01111747579480802
2023-12-11,-0.015049746168669848
2023-12-12,-0.014519018716671283
2023-12-13,-0.011226859891192804
2023-12-14,-0.01700605960966035
2023-12-15,-0.01493781934582563
2023-12-18,-0.013428456836348454
2023-12-19,-0.018397380027946574
2023-12-20,-0.013842607318950262
2023-12-21,-0.012559249758033663
2023-12-22,-0.00931717496493977
2023-12-25,-0.007346232832377966
2023-12-26,-0.011129548934481096
2023-12-27,-0.006681486099264224
2023-12-28,-0.006165574666980575
2023-12-29,-0.008460374208721547
2024-01-02,-0.00979115946007706
2024-01-03,-0.00583481926158802
2024-01-04,0.0009453817769481121
2024-01-05,0.008987575287523974
2024-01-08,0.005981654554101018
2024-01-09,0.005442765293121477
2024-01-10,-0.004112116996981694
2024-01-11,-0.016825894283909418
2024-01-12,-0.012142892847123077
2024-01-15,-0.018080523689402217
2024-01-16,-0.016601825591659434
2024-01-17,-0.02023787880946107
2024-01-18,-0.009243704337599426
2024-01-19,-0.01295689257052094
2024-01-22,-0.03012925538945959
2024-01-23,-0.02560746979595993
2024-01-24,-0.014741756332423193
2024-01-25,-0.001618950317387782
2024-01-26,-0.007802270969626838
2024-01-29,-0.009376970626553554
2024-01-30,-0.0210289280896113
2024-01-31,-0.013573238581786981
2024-02-01,-0.004728736285003365
2024-02-02,-0.0038469124396788845
2024-02-05,0.025241735739411658
2024-02-06,0.019925328270578135
2024-02-07,0.017243878192432595
2024-02-08,0.008033592814521845
2024-02-19,0.012768307350741213
2024-02-20,0.016254548436124755
2024-02-21,0.015661664579676222
2024-02-22,0.013105049537071293
2024-02-23,0.013309438758303224
2024-02-26,0.0020469595485915343
2024-02-27,-0.01737369026822832
2024-02-28,0.002225763741958063
2024-02-29,-0.009591352386215744
2024-03-01,-0.008421019353964283
2024-03-04,-0.008558129479517796
2024-03-05,-0.00919584748561196
2024-03-06,0.0007870626919691294
2024-03-07,-0.0014515018723128964
2024-03-08,-0.00026529985932125313
2024-03-11,-0.003808207324986832
2024-03-12,-0.0036987350088731885
2024-03-13,-0.013563103050423443
2024-03-14,-0.0045770670386206126
2024-03-15,-0.01263541637346613
2024-03-18,-0.013702028982173988
2024-03-19,-0.01523130913051364
2024-03-20,-0.012658523457175767
2024-03-21,-0.010163520890339409
2024-03-22,-0.009708131709578634
2024-03-25,-0.011903466209510452
2024-03-26,-0.002928939159840477
2024-03-27,0.006980062056736355
2024-03-28,-0.005143860247536676
2024-03-29,-0.008907875562629309
2024-04-01,-0.0005402488817828691
2024-04-02,-0.0027759829600288322
2024-04-03,-0.0007831056199203365
2024-04-08,-0.006546254868948111
2024-04-09,-0.013881734327446105
2024-04-10,-0.0038173402028129355
2024-04-11,-0.010697505418085139
2024-04-12,-0.016851726612720087
2024-04-15,-0.019946158327159014
2024-04-16,-0.01838996910669608
2024-04-17,-0.048216268012675124
2024-04-18,-0.043326157609150616
2024-04-19,-0.04745141912397173
2024-04-22,-0.032199443800840236
2024-04-23,-0.021058997795485597
2024-04-24,-0.02473542175356465
2024-04-25,-0.025547184332152348
2024-04-26,-0.014641658363510644
2024-04-29,-0.011447803306255775
2024-04-30,-0.011363941676383344
2024-05-06,0.0053748945121318715
2024-05-07,0.005262951698117779
2024-05-08,0.003253518130115556
2024-05-09,0.0028211142872014757
2024-05-10,0.005719509444888818
2024-05-13,0.008012555084053782
2024-05-14,0.00863731677201607
2024-05-15,0.003387920865215787
2024-05-16,-0.0007564297401955605
2024-05-17,-0.0016440515777165834
2024-05-20,-0.0055418766162125925
2024-05-21,-0.006868933836184657
2024-05-22,-0.006345816096403927
2024-05-23,-0.0006489152892501012
2024-05-24,0.003329230870282413
2024-05-27,-0.0032621205127400226
2024-05-28,-0.0017172496098290246
2024-05-29,-0.003747348814359822
2024-05-30,0.004169080476467735
2024-05-31,0.001601167692436652
2024-06-03,0.005440287672552659
2024-06-04,0.012830130639251713
2024-06-05,0.01696322604783436
2024-06-06,0.01705280996812669
2024-06-07,0.006436100962440319
2024-06-11,0.007065600571081351
2024-06-12,0.006318826973352461
2024-06-13,0.007647246330525204
2024-06-14,0.013238829978091872
2024-06-17,0.022028009638442075
2024-06-18,0.01984223666585363
2024-06-19,0.01689457959072904
2024-06-20,0.010478987437950681
2024-06-21,0.007999321628236512
2024-06-24,0.014952389096234614
2024-06-25,0.022327614587638822
2024-06-26,0.015497067794546482
2024-06-27,0.009321059198892555
2024-06-28,-0.004067173915186314
2024-07-01,-0.003362001996712843
2024-07-02,-0.0002540491773578967
2024-07-03,-0.007056234830039464
2024-07-04,-0.01220190934242708
2024-07-05,-0.015037344015470811
2024-07-08,-0.022603735964339625
2024-07-09,-0.02406425836287634
2024-07-10,-0.017965572812051106
2024-07-11,-0.01902504666985746
2024-07-12,-0.007601092160605314
2024-07-15,-0.008625833224109723
2024-07-16,-0.006573990151518688
2024-07-17,-0.0051887667736051565
2024-07-18,0.00443917034025422
2024-07-19,0.0037482200360313134
2024-07-22,-0.00753867289129332
2024-07-23,-0.010851748839549008
2024-07-24,-0.015953907645423808
2024-07-25,-0.014784916797614268
2024-07-26,-0.010561707100760945
2024-07-29,-0.016297570202687038
2024-07-30,-0.01274928315719019
2024-07-31,0.001497435940358005
2024-08-01,-0.005083238413032511
2024-08-02,0.002344083707683158
2024-08-05,0.02171213169228495
2024-08-06,0.02665635270764452
2024-08-07,0.02819606037135817
2024-08-08,0.03216313256827971
2024-08-09,0.02027315937065004
2024-08-12,0.01849470390453893
2024-08-13,0.018535231463848452
2024-08-14,0.012294044397846211
2024-08-15,0.00657117269880865
2024-08-16,-0.001414425563916081
2024-08-19,0.006696856904019917
2024-08-20,-0.0027569180315799692
2024-08-21,-0.01393985155414873
2024-08-22,-0.016630103620194403
2024-08-23,-0.01160342181819302
2024-08-26,-0.00888535916325989
2024-08-27,-0.013162203380330315
2024-08-28,-0.018996035012707625
2024-08-29,-0.00613817320350768
2024-08-30,0.0027477932133420854
2024-09-02,-0.0024503234462194684
2024-09-03,-0.0031381241602394822
2024-09-04,0.006825633513802281
2024-09-05,0.007303202132320642
2024-09-06,-0.002757111530843452
2024-09-09,-0.0018002196590961028
2024-09-10,-0.011234864063127598
2024-09-11,-0.02108521439853564
2024-09-12,-0.05315696213779397
2024-09-13,-0.08183718885663316
2024-09-18,-0.06848972641225728
2024-09-19,-0.055139769613755024
2024-09-20,-0.04327130323076414
2024-09-23,-0.048456273662387694
2024-09-24,-0.044556839826093
2024-09-25,-0.02670150270992852
2024-09-26,-0.019367861425620095
2024-09-27,-0.002165021519724808
2024-09-30,0.0015442460560321516
2024-10-08,-0.014773679183798266
2024-10-09,0.004598600130807917
2024-10-10,0.013512191816764668
2024-10-11,0.008520036028933572
2024-10-14,-0.0012906189356350212
2024-10-15,-0.00023752039480276488
2024-10-16,-0.00048162846464432085
2024-10-17,0.007065719504129153
2024-10-18,-0.00681664610208777
2024-10-21,-0.0068118757791981194
2024-10-22,0.005907783461555266
2024-10-23,0.006063119214683055
2024-10-24,0.008573596173897809
2024-10-25,0.008990951192543416
2024-10-28,0.03313904309313086
2024-10-29,0.027894577426025094
2024-10-30,0.03747120744228092
2024-10-31,0.0209562443916615
2024-11-01,0.021380068784165707
2024-11-04,0.00448792167325166
2024-11-05,-0.0034564219675111956
2024-11-06,-0.0026127884566043875
2024-11-07,-0.0040703651622815765
2024-11-08,-0.008728108929834576
2024-11-11,-0.03222034226804521
2024-11-12,-0.029786361858282373
2024-11-13,-0.030064308089102623
2024-11-14,-0.02695954429330493
2024-11-15,-0.0017697324979810277
2024-11-18,0.010552492511734837
2024-11-19,-0.007331320916553121
2024-11-20,-0.009499356518100492
2024-11-21,-0.006643101125492516
2024-11-22,0.002754686304035421
2024-11-25,0.0020069703828218995
2024-11-26,0.00875875280889405
2024-11-27,0.0007527158313367262
2024-11-28,-0.0017682576047263199
2024-11-29,-0.01042340625786295
2024-12-02,-0.014147805638044793
2024-12-03,-0.008017323459831385
2024-12-04,0.0011102835629925203
2024-12-05,0.0003511883749791598
2024-12-06,0.009600858362631769
2024-12-09,0.0037105282844629335
2024-12-10,0.007364259494266703
2024-12-11,0.003051857130750771
2024-12-12,0.01256561478515383
2024-12-13,0.00741836734426029
2024-12-16,0.010679508320950036
2024-12-17,0.0013921181333849337
2024-12-18,-0.006714889447683635
2024-12-19,-0.0120500366512473
2024-12-20,-0.02015705673415375
2024-12-23,-0.0031655915416264543
2024-12-24,0.0015256173605513318
2024-12-25,-0.0006642591362687258
2024-12-26,-0.007774422835493004
2024-12-27,-0.004017600430374885
2024-12-30,0.0010916702910757428
2024-12-31,0.006617184184089669
2025-01-02,0.007188957383958103
2025-01-03,0.018385585824064576
2025-01-06,0.013701990505386175
2025-01-07,0.0049425649233329795
2025-01-08,0.013946248572905237
2025-01-09,0.012379086859134851
2025-01-10,0.013313812748999496
2025-01-13,-0.0030001579966056485
2025-01-14,-0.006638257857658456
2025-01-15,-0.0015737847366954633
2025-01-16,-0.0015640720310314687
2025-01-17,-0.00606064294010205
2025-01-20,0.00018997518543501998
2025-01-21,-0.010322976199795317
2025-01-22,-0.01739169678725484
2025-01-23,-0.022480435652701698
2025-01-24,-0.005665012054882151
2025-01-27,0.0034212536244682956
2025-02-05,0.004882809784847349
2025-02-06,-4.003130503840019e-05
2025-02-07,0.007856086062984255
2025-02-10,0.011991259504326047
2025-02-11,0.01720869929382458
2025-02-12,0.006724237852167414
2025-02-13,0.012165935271675213
2025-02-14,-0.00584166606142094
2025-02-17,-0.013432847512271263
2025-02-18,-0.007277328443083838
2025-02-19,-0.006142102733459803
2025-02-20,0.0117166943473563
2025-02-21,-0.012464206931609594
2025-02-24,-0.016456103767303127
2025-02-25,-0.02287896853396901
2025-02-26,-0.024972832285040113
2025-02-27,-0.02639390990355794
2025-02-28,0.005952731384562888
2025-03-03,0.008596049440338094
2025-03-04,0.007640297362045356
2025-03-05,-0.006176370525160953
2025-03-06,-0.02389180508998198
2025-03-07,-0.030250149276937772
2025-03-10,-0.025999967415642485
2025-03-11,-0.033458136785775826
2025-03-12,-0.03345960595540606
2025-03-13,-0.022206346679452576
2025-03-14,-0.027224893581711554
2025-03-17,-0.025592260921264716
2025-03-18,-0.03513284499845631
2025-03-19,-0.029221439696271494
2025-03-20,-0.03208453455385531
2025-03-21,-0.02951034349192834
2025-03-24,-0.05565270403899397
2025-03-25,-0.03561246681303348
2025-03-26,-0.024869311952815658
2025-03-27,-0.013082519756524746
2025-03-28,-0.010447687871333062
2025-03-31,-0.014103680132005966
2025-04-01,-0.021003089747978175
2025-04-02,-0.01968185315275718
2025-04-03,-0.010283712082863487
2025-04-07,0.017536148250703654
2025-04-08,0.033983442516494204
2025-04-09,0.03267142679605467
2025-04-10,0.01531567009053868
2025-04-11,0.00877988192654713
2025-04-14,0.003134103474392157
2025-04-15,0.009231307995780666
2025-04-16,0.018929616675398622
2025-04-17,0.022809021866241203
2025-04-18,0.016868141306528153
2025-04-21,0.0116374040994352
2025-04-22,0.0066997785069174455
2025-04-23,0.0003331779592369126
2025-04-24,0.0023174687755653962
2025-04-25,0.0007102938581512522
2025-04-28,-0.0028316392036348316
2025-04-29,-0.00036574176172709735
2025-04-30,-0.009935064177197674
2025-05-06,-0.011874603433702856
2025-05-07,-0.008575398479496898
2025-05-08,-0.007204456021224087
2025-05-09,-0.006193780904637737
2025-05-12,-0.005597651499574207
2025-05-13,-6.982390984771897e-05
2025-05-14,-6.163122475593211e-05
2025-05-15,0.012713849241278776
2025-05-16,0.0027383543386582192
2025-05-19,0.004595018183714927
2025-05-20,0.006536889253905015
2025-05-21,0.014968236327233753
2025-05-22,0.014053796030724708
2025-05-23,0.015499316108354595
2025-05-26,0.013733751972506057
2025-05-27,0.012896906756408633
2025-05-28,0.017629027328568716
2025-05-29,0.010007904543587371
2025-05-30,0.01801909335843374
2025-06-03,0.008604811259885152
2025-06-04,0.0064443120890990205
2025-06-05,0.002397495768080198
2025-06-06,0.0004534208497964688
2025-06-09,0.0010973869393790933
2025-06-10,0.0047365636736018575
2025-06-11,0.009991309214975048
2025-06-12,0.0018190478492025918
2025-06-13,0.004602483191745058
2025-06-16,0.0030432761551289593
2025-06-17,0.009536778208793343
2025-06-18,-0.0004440497588755164
2025-06-19,0.005292309249298854
2025-06-20,0.007979241300266837
2025-06-23,-0.0011889800933915992
2025-06-24,-0.0009224672898405332
2025-06-25,-0.004204148208778801
2025-06-26,-0.003931156279915329
2025-06-27,0.0026750135221549516
2025-06-30,-0.0008016952058510843
2025-07-01,0.004480818064505881
2025-07-02,0.011801024686661072
2025-07-03,0.016838085015977625
2025-07-04,0.012131855924623031
2025-07-07,0.007062319770573644
2025-07-08,-0.004103371507086416
2025-07-09,0.002431234224987505
2025-07-10,0.004363077729405397
2025-07-11,0.006656532316410516
2025-07-14,0.015472425443945934
2025-07-15,0.01454837151859105
2025-07-16,0.006866716616537323
2025-07-17,0.007484219410754802
2025-07-18,0.005907490849361681
2025-07-21,0.012451106113540937
2025-07-22,0.016502514299563818
2025-07-23,0.014456783045750501
2025-07-24,0.013065510440474565
2025-07-25,0.008613003080183042
2025-07-28,0.0010321513888955922
2025-07-29,0.00030240737824788514
2025-07-30,0.009881834080749332
2025-07-31,0.006949592295883985
2025-08-01,0.013565641640732928
2025-08-04,0.023093257857412744
2025-08-05,0.016779492488834494
2025-08-06,0.01081223236256628
2025-08-07,0.010839755172870717
2025-08-08,0.0266665631394516
2025-08-11,0.0372011340918602
2025-08-12,0.032665536512121986
2025-08-13,0.03376187370414111
2025-08-14,0.05638301575873513
2025-08-15,0.04897902221201522
2025-08-18,0.04964026579915053
2025-08-19,0.03616137839141201
2025-08-20,0.038445521408704816
2025-08-21,0.01692142274836514
2025-08-22,0.011286039002328855
2025-08-25,-0.004190405452759087
2025-08-26,-0.003966301530959002
2025-08-27,-0.0034418321426678616
2025-08-28,-0.009460681194939107
2025-08-29,-0.004826209970342426
2025-09-01,-0.015439946055786115
2025-09-02,0.010589363749918016
2025-09-03,0.011014314257007832
2025-09-04,0.05932504154869474
2025-09-05,0.02416784716810946
2025-09-08,0.055298219986438274
2025-09-09,0.0672149041554419
2025-09-10,0.06887114094330167
2025-09-11,0.05051185500119151
2025-09-12,0.029661997937036957
2025-09-15,0.043134107243986
2025-09-16,0.04560093246006547
2025-09-17,0.05218921975030543
2025-09-18,0.014098169961352339
2025-09-19,0.030597828008411758
2025-09-22,-0.020447899021740885
2025-09-23,-0.01304474778684745
2025-09-24,-0.03161653361122703
2025-09-25,-0.05116794523224502
2025-09-26,-0.039473847348528726
2025-09-29,-0.03369860330898432
2025-09-30,-0.04590733516049506
2025-10-09,-0.054316793003966614
2025-10-10,-0.003411574564007728
2025-10-13,-0.0012809581200331245
2025-10-14,0.027404660623346414
2025-10-15,0.03172034029128705
2025-10-16,0.026477163315214203
2025-10-17,0.027075122696341557
2025-10-20,0.021291595768614
2025-10-21,-0.0035377948065791185
2025-10-22,-0.0012889454356957396
2025-10-23,0.01981536030810794
2025-10-24,-0.01106129047228567
2025-10-27,-0.03354463330517989
2025-10-28,-0.0422967893657421
2025-10-29,-0.055231681264514124
2025-10-30,-0.04177032042157682
2025-10-31,-0.03937927014475164
2025-11-03,-0.03149197716826594
2025-11-04,-0.019639379368942812
2025-11-05,-0.018951047507567216
2025-11-06,-0.02889238034141731
2025-11-07,-0.03776623730884665
2025-11-10,-0.025315254149171088
2025-11-11,-0.009547203342313255
2025-11-12,0.003972279041121712
2025-11-13,-0.0052504080063919475
2025-11-14,0.010653752241607225
2025-11-17,0.011783320115970103
2025-11-18,0.00888541197806788
2025-11-19,0.006740910663062652
2025-11-20,0.014695555402921393
2025-11-21,0.03304975268284097
2025-11-24,0.04732705721404464
2025-11-25,0.043200582816558815
2025-11-26,0.02991992623533201
2025-11-27,0.025929209439176877
2025-11-28,0.025322841325389953
2025-12-01,0.012937148854465733
2025-12-02,0.009857375761988375
2025-12-03,0.02382776696755736
2025-12-04,0.00904747885608448
2025-12-05,0.007857294193557489
2025-12-08,0.00800618688317287
2025-12-09,0.00631857500314351
2025-12-10,0.014562958967604626
2025-12-11,0.019578931252011975
2025-12-12,0.013927941973167586
2025-12-15,0.024340333966139403
2025-12-16,0.036076769090824704
2025-12-17,0.020961655519499762
2025-12-18,0.04206304851547688
2025-12-19,0.04893258411466213
2025-12-22,0.03953359549084374
2025-12-23,0.03800045992461341
2025-12-24,0.03844027490187443
2025-12-25,0.05358220230002253
2025-12-26,0.032415113981579716
2025-12-29,0.03738723810715231
2025-12-30,0.039973460053309
2025-12-31,0.05176686826026344
2026-01-05,0.038640679696606985
2026-01-06,0.018960852393855455
2026-01-07,0.026887670033407526
2026-01-08,0.024455456626605074
2026-01-09,0.02752809287980575
2026-01-12,5.045219642608404e-05
2026-01-13,0.02929369851542904
2026-01-14,0.020905969934711114
2026-01-15,0.009165038955049666
2026-01-16,-0.0010914123913668538
2026-01-19,-0.01852197204260661
2026-01-20,0.010041604197669092
2026-01-21,-0.02369818271038228
2026-01-22,-0.03874680314035971
2026-01-23,-0.0465173068120161
2026-01-26,-0.02518227579822732
2026-01-27,-0.035300614689527735
2026-01-28,-0.04121125354095828
2026-01-29,-0.009745609295661118
2026-01-30,-0.004787711918591597
2026-02-02,0.024513108184291196
2026-02-03,0.011070780070209268
2026-02-04,0.03645782207253753
2026-02-05,0.05588582400350978
2026-02-06,0.06958876202348446
2026-02-09,0.028480229213534047
2026-02-10,0.029565495573797125
2026-02-11,0.037870365150332576
2026-02-12,0.010641997150921775
2026-02-13,0.01400479069176282
2026-02-24,0.00772904968478807
2026-02-25,-0.004918234609444233
2026-02-26,-0.020969320361227645
2026-02-27,-0.031581792338568775
2026-03-02,-0.04360917950477351
2026-03-03,-0.041505562110359454
2026-03-04,-0.034661061451689075
2026-03-05,-0.04140359341916336
2026-03-06,-0.030147930357374116
2026-03-09,-0.030264324447506957
2026-03-10,-0.025289252567337744
2026-03-11,-0.019522311585047636
2026-03-12,-0.01709703995894707
2026-03-13,-0.012442330033634416
2026-03-16,-0.003816464636524422
2026-03-17,0.0011953225667880873
2026-03-18,-0.005834099752446562
2026-03-19,-0.010644033486027202
2026-03-20,-0.004280534719819644
2026-03-23,0.002261984363812957
2026-03-24,0.01991768368944905
2026-03-25,0.01634493764178759
2026-03-26,0.02794669337543293
2026-03-27,0.03504170203959561
2026-03-30,0.039016987357716734
2026-03-31,0.04316474778527427
2026-04-01,0.046375267866471885
2026-04-02,0.07259706436219157
2026-04-03,0.07105549400539857
2026-04-07,0.06142924505455593
2026-04-08,0.05634797556569874
2026-04-09,0.0461086209016758
2026-04-10,0.03540410147176774
2026-04-13,0.04345090121779435
2026-04-14,0.02405753590993494
2026-04-15,0.033565064587872895
2026-04-16,0.03579820595896354
2026-04-17,0.049487907472739456
2026-04-20,0.058721648538315935
2026-04-21,0.059667135098214794
2026-04-22,0.06439734713593141
2026-04-23,0.07304563801091246
2026-04-24,0.09839395716564299
2026-04-27,0.07294450783132525
2026-04-28,0.08164081339860582
2026-04-29,0.08631589973706771
2026-04-30,0.07364298851854535
2026-05-06,0.06531633169491002
2026-05-07,0.03864628951877925
2026-05-08,0.06751100146039062
2026-05-11,0.07303821773257901
2026-05-12,0.06515309627795224
2026-05-13,0.037812584266301096
2026-05-14,0.06256097108497251
2026-05-15,0.03191420396115943
2026-05-18,-0.005818655494714032
2026-05-19,0.007501885018434936
2026-05-20,0.014417697358686959
2026-05-21,0.04060773088262639
2026-05-22,-0.002306218774698575
2026-05-25,-0.04716464825240882
2026-05-26,-0.013147075160377494
2026-05-27,-0.021793927656738876
2026-05-28,-0.03548822224659335
2026-05-29,-0.0068957895346369695
2026-06-01,0.06156894221653425
2026-06-02,0.06617653143496009
2026-06-03,0.06909539673596324
2026-06-04,0.08894420477064466
2026-06-05,0.12066912108012334
2026-06-08,0.12493958190078269
2026-06-09,0.11797648483487222
2026-06-10,0.16494488653753137
