date,long_short
2015-02-25,-0.017070044820592472
2015-02-26,-0.01457521056842489
2015-02-27,-0.014329008133032447
2015-03-02,-0.005354649584203801
2015-03-03,0.004131551334461303
2015-03-04,0.017743697500385902
2015-03-05,0.019869721619319214
2015-03-06,0.02356253399796977
2015-03-09,0.028017838552831544
2015-03-10,0.026976276123160385
2015-03-11,0.01519868973713076
2015-03-12,0.0005132343463182462
2015-03-13,0.028082840507856838
2015-03-16,0.021034188429558898
2015-03-17,0.023256257337367803
2015-03-18,0.017482004122901976
2015-03-19,0.023128152755794006
2015-03-20,0.0011825735970312778
2015-03-23,-0.006111060637903756
2015-03-24,-0.010316364304933089
2015-03-25,0.013221011329869303
2015-03-26,0.013735280302941598
2015-03-27,-0.00949918994813926
2015-03-30,-0.015056762576967711
2015-03-31,-0.01036562392841358
2015-04-01,-0.015637189756160585
2015-04-02,-0.0005366083953374026
2015-04-03,0.015033978797566565
2015-04-07,0.010889650475239598
2015-04-08,0.008550691367522045
2015-04-09,0.0037358829320239227
2015-04-10,0.0006480954621478144
2015-04-13,-0.013672955356192805
2015-04-14,-0.01772905110369956
2015-04-15,-0.012558380261580002
2015-04-16,-0.005297278701058561
2015-04-17,-0.013366825442868192
2015-04-20,0.004381744664846143
2015-04-21,0.010190051337595318
2015-04-22,-0.002779254365967397
2015-04-23,0.0006566888032335065
2015-04-24,0.010352851621773473
2015-04-27,-0.0009542317864868165
2015-04-28,0.0013058570276783914
2015-04-29,-0.0017863700083334613
2015-04-30,-0.008424912484354709
2015-05-04,-0.0014617055782371602
2015-05-05,0.012661303219394137
2015-05-06,0.0144870792151226
2015-05-07,0.018465693598937363
2015-05-08,0.0067317282918393125
2015-05-11,-0.005239468548989811
2015-05-12,0.0010320218092284231
2015-05-13,0.0019881752676613844
2015-05-14,0.03938325339148693
2015-05-15,0.04110445817489031
2015-05-18,0.030086762147469692
2015-05-19,0.045814096506913315
2015-05-20,0.03381791429713947
2015-05-21,-0.002457343405834522
2015-05-22,-0.008178207236372416
2015-05-25,0.024971353846790542
2015-05-26,0.01791128082318135
2015-05-27,0.014459566785709078
2015-05-28,0.00533701380535101
2015-05-29,0.012938317744350204
2015-06-01,-0.009922029219258454
2015-06-02,-0.016622444047620043
2015-06-03,-0.017569248121612025
2015-06-04,-0.0037384656647084123
2015-06-05,0.006953527444434384
2015-06-08,0.0007507431484652521
2015-06-09,-0.011574441177096849
2015-06-10,-0.009721884576684145
2015-06-11,-0.023264463162370908
2015-06-12,-0.05893834205218003
2015-06-15,-0.037875208473219346
2015-06-16,-0.03475055599690578
2015-06-17,-0.05700336281699941
2015-06-18,-0.07277669711815074
2015-06-19,-0.06474777577606197
2015-06-23,-0.032729523179426234
2015-06-24,-0.02366551373566167
2015-06-25,-0.03523999719545007
2015-06-26,-0.01483782812794611
2015-06-29,0.021394961248829517
2015-06-30,-0.0628691495794876
2015-07-01,-0.03233495225114266
2015-07-02,-0.0020219299016182093
2015-07-03,0.024510605378601794
2015-07-06,0.023351494342469182
2015-07-07,0.08508665994243034
2015-07-08,0.04447563975210922
2015-07-09,0.03178771567654182
2015-07-10,0.023053221588622407
2015-07-13,0.004934618965048031
2015-07-14,-0.009558811764301612
2015-07-15,0.023642871235481297
2015-07-16,0.019717799403252356
2015-07-17,0.0003804645862959589
2015-07-20,-0.02610743325474213
2015-07-21,-0.00330759213797175
2015-07-22,-0.015796925455701993
2015-07-23,-0.02188293903366316
2015-07-24,-0.023528857379842713
2015-07-27,-0.007948936013340978
2015-07-28,-0.010260598664409993
2015-07-29,-0.010115619843411194
2015-07-30,-0.0070289459795768615
2015-07-31,0.010791200243415696
2015-08-03,0.049043158110499724
2015-08-04,0.006865717122938625
2015-08-05,-0.01131824148442256
2015-08-06,0.007482345431710009
2015-08-07,-0.006109724126506337
2015-08-10,-0.027243637803350658
2015-08-11,-0.020556987017458134
2015-08-12,-9.042387435592367e-05
2015-08-13,-0.00931063962621096
2015-08-14,-0.026300190404597024
2015-08-17,-0.03171505794936183
2015-08-18,-0.048748441889378075
2015-08-19,-0.060961470969252224
2015-08-20,-0.0476227409792231
2015-08-21,-0.03171156370126026
2015-08-24,-0.02920490339941524
2015-08-25,-0.009437513411091288
2015-08-26,0.006646736811936969
2015-08-27,0.009169961269309095
2015-08-28,0.005497443195190268
2015-08-31,-0.0012704977228221795
2015-09-01,0.01745142553211887
2015-09-02,0.02636721038684969
2015-09-07,-0.008661861330414567
2015-09-08,-0.020307368754878766
2015-09-09,-0.011375324449916423
2015-09-10,-0.0203317179384254
2015-09-11,-0.020022869441544335
2015-09-14,0.011683754849476577
2015-09-15,0.020509929274473745
2015-09-16,-0.00035581606750977393
2015-09-17,0.02413508900404176
2015-09-18,0.01616146167742847
2015-09-21,0.010884148446725514
2015-09-22,0.01420375998580082
2015-09-23,0.013492061269590162
2015-09-24,-0.007350727288557769
2015-09-25,0.006728443122442845
2015-09-28,0.00482107204602307
2015-09-29,0.006340580655516001
2015-09-30,0.0011171518302879116
2015-10-08,0.013558155318017497
2015-10-09,0.018878258916232488
2015-10-12,0.004142058980450695
2015-10-13,0.010270158159458916
2015-10-14,0.0013890466322478744
2015-10-15,0.0077353142805533254
2015-10-16,0.006681961711520882
2015-10-19,0.002066531215631374
2015-10-20,0.0008905853160854956
2015-10-21,0.005929132386452814
2015-10-22,-0.008403479548379287
2015-10-23,-0.0023649861882127825
2015-10-26,-0.007067443289486022
2015-10-27,-0.022017003845316623
2015-10-28,0.015516070236962097
2015-10-29,0.014896523863945422
2015-10-30,0.022651016992515413
2015-11-02,0.03091106468797543
2015-11-03,0.04656862282241469
2015-11-04,0.03233860532001154
2015-11-05,0.03536430376712406
2015-11-06,0.017217751235660828
2015-11-09,0.020253082323383288
2015-11-10,0.00616766991525498
2015-11-11,-0.003149403526158133
2015-11-12,0.00013549944817244216
2015-11-13,0.0005954575127126872
2015-11-16,-0.013215151247668496
2015-11-17,0.003039925013529646
2015-11-18,0.01558008571910329
2015-11-19,0.0021047427703903276
2015-11-20,-0.013768283722014166
2015-11-23,-0.014218248326792114
2015-11-24,-0.024132237781636444
2015-11-25,-0.032561497969189904
2015-11-26,-0.008885731797909746
2015-11-27,0.005780810927062983
2015-11-30,0.010399267273621475
2015-12-01,0.011577752894429826
2015-12-02,0.012795394286155747
2015-12-03,0.004327671723383816
2015-12-04,-0.0028239717718462048
2015-12-07,0.023115536943389116
2015-12-08,0.019293688634693683
2015-12-09,0.013334716009988716
2015-12-10,0.009427354329655854
2015-12-11,0.02240804436556918
2015-12-14,0.021746201066993858
2015-12-15,0.023944043761150356
2015-12-16,0.014692365566392012
2015-12-17,0.007008828761203517
2015-12-18,0.01008875980201299
2015-12-21,-0.010784898015128285
2015-12-22,-0.013322096518755901
2015-12-23,-0.012670423070264308
2015-12-24,-0.006770125720154795
2015-12-25,-0.03126731388878164
2015-12-28,-0.004302118407274104
2015-12-29,-3.254304111049988e-05
2015-12-30,0.0006665975309749633
2015-12-31,-0.01962064432547836
2016-01-04,-0.000525285350292018
2016-01-05,-0.002181329810536606
2016-01-06,-0.020782942351460387
2016-01-07,-0.0032878605850390798
2016-01-08,-0.0067921245043638945
2016-01-11,0.003975203127042186
2016-01-12,-0.005756238353874531
2016-01-13,0.01880571697372284
2016-01-14,0.02263473420663971
2016-01-15,0.019683737042814314
2016-01-18,0.018067059496427607
2016-01-19,-0.014796626371272312
2016-01-20,-0.024018768774693867
2016-01-21,-0.05026362275146372
2016-01-22,-0.04910404072678193
2016-01-25,-0.05422535125181432
2016-01-26,-0.026167350355742098
2016-01-27,-0.0007675606638935769
2016-01-28,0.0046995301914200885
2016-01-29,0.01676162185380306
2016-02-01,0.015443917233414121
2016-02-02,0.009971879355541407
2016-02-03,-0.0002960023149640202
2016-02-04,0.0013436803584495512
2016-02-05,-0.0034556053370312506
2016-02-15,5.869407289159356e-05
2016-02-16,-0.006412778780102278
2016-02-17,-0.010238878613251446
2016-02-18,-0.0027797350382949837
2016-02-19,-0.003931062813700072
2016-02-22,-0.018294415616284566
2016-02-23,-0.010097284246291166
2016-02-24,-0.009552440181457945
2016-02-25,-0.029007430968240572
2016-02-26,-0.023976620472750034
2016-02-29,-0.006844125356087985
2016-03-01,-0.00787379208738298
2016-03-02,-0.003424568616762365
2016-03-03,-0.005240250913364452
2016-03-04,-0.007889091944633098
2016-03-07,-0.0036607294931005393
2016-03-08,-0.013343493301809575
2016-03-09,-0.01238345140968471
2016-03-10,0.012618921458268515
2016-03-11,0.025660888559479657
2016-03-14,0.03582507337120973
2016-03-15,0.031235623008621663
2016-03-16,0.01757870465675044
2016-03-17,0.015806116045907728
2016-03-18,0.00893040672160781
2016-03-21,-0.00990397963201423
2016-03-22,-0.008053651716548253
2016-03-23,-0.0025340146970281156
2016-03-24,-0.009340136809314992
2016-03-25,-0.007873425472642703
2016-03-28,0.005747179051759416
2016-03-29,0.008873217147873945
2016-03-30,-0.009604316703905156
2016-03-31,-0.003031619420495367
2016-04-01,0.0016585479070408762
2016-04-05,-0.013684199581303437
2016-04-06,-0.018068979607801017
2016-04-07,-0.011086570194779766
2016-04-08,-0.01534105956548745
2016-04-11,-0.008237173494017425
2016-04-12,-0.016097818314212364
2016-04-13,-0.01948435403713086
2016-04-14,-0.027596987393149877
2016-04-15,-0.0171582011714864
2016-04-18,-0.018758672983940447
2016-04-19,-0.00288844977535126
2016-04-20,-0.004586002628094216
2016-04-21,0.002477953586633397
2016-04-22,0.0015932469447650813
2016-04-25,0.007613535207076371
2016-04-26,0.008534466228980752
2016-04-27,0.017437392358509756
2016-04-28,0.023082239766439194
2016-04-29,0.00936876113166044
2016-05-03,-0.005053607319657108
2016-05-04,-0.010311400550920093
2016-05-05,-0.011201609399907393
2016-05-06,-0.0043169194587046045
2016-05-09,0.0012591569665014097
2016-05-10,-0.0033323976941921473
2016-05-11,0.009516750801658015
2016-05-12,0.00225533338691738
2016-05-13,-0.004761375440006311
2016-05-16,-0.0015589350084737356
2016-05-17,-0.004195478598867043
2016-05-18,-0.016944169038499636
2016-05-19,-0.025228941629461335
2016-05-20,-0.009929583133921671
2016-05-23,-0.014547627511710418
2016-05-24,-0.015062906365533549
2016-05-25,0.010439587911695181
2016-05-26,0.011800442345002854
2016-05-27,0.004719153820345757
2016-05-30,0.005063058455372194
2016-05-31,0.003983160632560697
2016-06-01,-0.0060732219384570215
2016-06-02,0.001789477907520461
2016-06-03,0.00017834850311826758
2016-06-06,-0.004956611334860948
2016-06-07,0.01518173276232829
2016-06-08,0.016694635306683518
2016-06-13,-0.008122065722553801
2016-06-14,0.004659602599583623
2016-06-15,-0.0077214177077194746
2016-06-16,-0.010562383779215975
2016-06-17,0.004410601339097597
2016-06-20,0.022631602671507958
2016-06-21,0.01060927865990828
2016-06-22,0.009653427934287693
2016-06-23,0.007660291093501579
2016-06-24,-0.001541247937124561
2016-06-27,-0.010127969781537686
2016-06-28,-0.009200593400481877
2016-06-29,-0.00102263971919285
2016-06-30,0.0068391228992288645
2016-07-01,0.007486671237746104
2016-07-04,0.0005553587254775779
2016-07-05,-0.004125721422656839
2016-07-06,-0.007351725430383781
2016-07-07,-0.014171493044864645
2016-07-08,-0.018457476595189412
2016-07-11,-0.0132694633107582
2016-07-12,-0.003868912146160182
2016-07-13,0.0005344147241224105
2016-07-14,-0.004351948771237548
2016-07-15,-0.004352864908565013
2016-07-18,0.00268399764541418
2016-07-19,-0.0014011969102349009
2016-07-20,-0.0055559646231839325
2016-07-21,0.0004849952363069898
2016-07-22,-0.0017027146323176801
2016-07-25,-0.0017537156569329537
2016-07-26,-0.008150616632796672
2016-07-27,-0.000299770235630336
2016-07-28,0.001139249751693031
2016-07-29,-0.004113859261944422
2016-08-01,-0.0006469581283852091
2016-08-02,-0.0035740298213924326
2016-08-03,-0.0012883195703875215
2016-08-04,-0.017805587912602415
2016-08-05,-0.01396096684875918
2016-08-08,-0.01123878018478243
2016-08-09,-0.011355600208236089
2016-08-10,-0.011069023308778753
2016-08-11,-0.0008191032322588353
2016-08-12,0.007636169289053134
2016-08-15,0.000638652409078253
2016-08-16,-0.0006487140405737179
2016-08-17,0.0012225128719722932
2016-08-18,-0.008078982824596716
2016-08-19,-0.004026280008862276
2016-08-22,-0.0034140464203752585
2016-08-23,-0.0059564354251297365
2016-08-24,0.008947465922223228
2016-08-25,0.010040382356065252
2016-08-26,0.0029242328981157932
2016-08-29,7.28788793999905e-05
2016-08-30,-0.003387977403566495
2016-08-31,-0.0084434174604613
2016-09-01,-0.015418179586041827
2016-09-02,-0.015982821865465582
2016-09-05,-0.012738728552354635
2016-09-06,-0.008857371530518809
2016-09-07,0.0035470026785635426
2016-09-08,-0.0022512588702036304
2016-09-09,0.0035620094339504638
2016-09-12,0.00024535015672278934
2016-09-13,0.00515443635120508
2016-09-14,-0.010029453296735248
2016-09-19,-0.010351035864658423
2016-09-20,-0.009233642788755986
2016-09-21,-2.7049725152286652e-05
2016-09-22,0.0008322950840041303
2016-09-23,0.0053096354819479104
2016-09-26,-0.008012197297804849
2016-09-27,-0.006115775409042016
2016-09-28,-0.00839197311645138
2016-09-29,-0.004493986033214402
2016-09-30,-0.008264365880533591
2016-10-10,0.0003968929639599373
2016-10-11,0.008532955022866802
2016-10-12,-0.001097391433743539
2016-10-13,-0.0038650755273404195
2016-10-14,-0.006116918277943919
2016-10-17,-0.00283031582582869
2016-10-18,-0.011780997673620688
2016-10-19,-0.0024041833011031926
2016-10-20,-0.004939982431281523
2016-10-21,-0.004607715836202781
2016-10-24,0.0020543754130227503
2016-10-25,0.0018280783256381782
2016-10-26,0.004837843488680188
2016-10-27,0.006814212055232906
2016-10-28,0.001445597838678834
2016-10-31,0.0018550299182486974
2016-11-01,-0.004449972085696398
2016-11-02,0.0056508207661564586
2016-11-03,-0.00040945402787198777
2016-11-04,0.006473483323110225
2016-11-07,0.0015549649684828727
2016-11-08,-0.00045423268349699744
2016-11-09,-0.00991713201601203
2016-11-10,-0.01055852359566143
2016-11-11,-0.017613074287326426
2016-11-14,-0.00781887233045886
2016-11-15,-0.00579591880665456
2016-11-16,-0.0025282379438063603
2016-11-17,0.0012652941334617192
2016-11-18,0.0018200333318821663
2016-11-21,-0.004295486226283859
2016-11-22,-0.0037135759281185145
2016-11-23,-0.005317331273330011
2016-11-24,-0.007553367389962629
2016-11-25,-0.010185211149878285
2016-11-28,0.017200487516076907
2016-11-29,0.01322909623935194
2016-11-30,0.008842841774727644
2016-12-01,0.005202172351215386
2016-12-02,-0.0026006470119477637
2016-12-05,-0.007827186615361172
2016-12-06,-0.0007386648932273809
2016-12-07,0.00373481847549725
2016-12-08,-0.0024981077464091977
2016-12-09,0.0062995300273663915
2016-12-12,-0.003618614188986853
2016-12-13,0.0011255813742559843
2016-12-14,0.0005914646805321114
2016-12-15,0.00819610152444288
2016-12-16,-0.0018114391008154547
2016-12-19,0.0010026218786447797
2016-12-20,-0.01061734407544648
2016-12-21,-0.014382125615744461
2016-12-22,-0.011133704420268023
2016-12-23,-0.019528153062717463
2016-12-26,-0.02805553686142696
2016-12-27,-0.022183725099897796
2016-12-28,-0.0186259824762554
2016-12-29,-0.02257607568784658
2016-12-30,-0.00949356174442113
2017-01-03,-0.0014859826579275326
2017-01-04,-0.0009544311181245062
2017-01-05,0.001963803889379204
2017-01-06,0.010384862809632517
2017-01-09,0.004901309532518518
2017-01-10,0.00798779218142617
2017-01-11,0.008205510426770823
2017-01-12,0.004105624954959081
2017-01-13,-0.0019946777539562614
2017-01-16,0.0033444655024986326
2017-01-17,0.00032379437247261663
2017-01-18,0.012627877386423833
2017-01-19,0.004471547427552028
2017-01-20,0.0026649926447951506
2017-01-23,0.007411511653685374
2017-01-24,-0.0035650121599793113
2017-01-25,-0.004138744759074012
2017-01-26,-0.0030981706963409605
2017-02-03,-0.009614493603524269
2017-02-06,-0.01524134904760869
2017-02-07,-0.010022806001445844
2017-02-08,-0.009131706379364755
2017-02-09,-0.01143831995827559
2017-02-10,0.0067981374446587405
2017-02-13,-0.0016602141088355726
2017-02-14,-0.001581154563301974
2017-02-15,0.0009898230274471287
2017-02-16,0.0002729942506492222
2017-02-17,-0.0035287756939667743
2017-02-20,0.0016583469093114558
2017-02-21,-0.00793748253812219
2017-02-22,-0.009696138674572705
2017-02-23,-0.015058655136309688
2017-02-24,-0.01777873264534812
2017-02-27,-0.026217192031700653
2017-02-28,-0.016974209534375118
2017-03-01,-0.009107174811842849
2017-03-02,-0.003278942877120158
2017-03-03,-0.0012886576067851112
2017-03-06,-0.004362649545311524
2017-03-07,0.0004138923638231373
2017-03-08,0.004392746886118946
2017-03-09,0.0029020710647863403
2017-03-10,0.0008500153698802098
2017-03-13,0.009138801607859487
2017-03-14,0.0038008930065870734
2017-03-15,0.0038703695761600886
2017-03-16,0.002615063481635276
2017-03-17,-0.0030522296081713363
2017-03-20,-0.0006247077094384302
2017-03-21,0.0017493906343921477
2017-03-22,0.001638400918510215
2017-03-23,0.00658507254889861
2017-03-24,0.014894046381535056
2017-03-27,-0.0010144750359264336
2017-03-28,-0.004601509836156166
2017-03-29,-0.006530058211737411
2017-03-30,-0.011509553235488667
2017-03-31,-0.015876755314377516
2017-04-05,0.0018217827093036712
2017-04-06,-0.000160016016086629
2017-04-07,0.003604887818449651
2017-04-10,0.004103414895146318
2017-04-11,0.013927687228409572
2017-04-12,0.01741253185565589
2017-04-13,0.021211927115430507
2017-04-14,0.013236464364426796
2017-04-17,0.006329193820288922
2017-04-18,-0.002745157686507858
2017-04-19,-0.014991909332747726
2017-04-20,-0.012456291980967652
2017-04-21,-0.013373370938969502
2017-04-24,-0.007141706428409094
2017-04-25,-0.0007275870951827447
2017-04-26,-0.006496186019375119
2017-04-27,0.010622022178879762
2017-04-28,0.0047925364936387375
2017-05-02,0.002458100640343578
2017-05-03,0.009545244848819797
2017-05-04,0.013894844103778845
2017-05-05,-0.003457768354924457
2017-05-08,-0.0006216916068650679
2017-05-09,-0.0008339871517814845
2017-05-10,-0.006260285501532034
2017-05-11,0.0022904977630153287
2017-05-12,0.001421411717233769
2017-05-15,-0.008394774719425475
2017-05-16,0.00530403315871141
2017-05-17,-0.003610131045804571
2017-05-18,-0.0023430632878894027
2017-05-19,-0.005961906619551215
2017-05-22,-0.004241416815780868
2017-05-23,-0.006916187501161708
2017-05-24,-0.003988092693194353
2017-05-25,-0.00017713784954239342
2017-05-26,0.0009750964902222234
2017-05-31,0.0015710491527569283
2017-06-01,-0.0006832633065252652
2017-06-02,0.0025388954218906086
2017-06-05,0.007531853714530867
2017-06-06,0.00682029067611431
2017-06-07,0.004577772690977245
2017-06-08,0.007592824824246315
2017-06-09,-0.00186160613425689
2017-06-12,-0.00771013022550395
2017-06-13,-0.009654862916181936
2017-06-14,-0.001983739267747567
2017-06-15,0.00099678913625619
2017-06-16,0.009475286786854406
2017-06-19,0.012411413736692994
2017-06-20,0.014241985766417765
2017-06-21,0.01712208253501679
2017-06-22,0.0038057540239239598
2017-06-23,0.0047713536693724905
2017-06-26,-0.0033289895194379138
2017-06-27,-0.004844087146258705
2017-06-28,-0.008514715986541929
2017-06-29,-0.0015892034144022
2017-06-30,-0.010346818312980389
2017-07-03,-0.005397559817061083
2017-07-04,-0.004477983637154633
2017-07-05,-0.0032105398159261818
2017-07-06,0.0032016277035561516
2017-07-07,0.014598079383755624
2017-07-10,0.032043743258651135
2017-07-11,0.019955459695144017
2017-07-12,0.01198838329910083
2017-07-13,0.021147695482941296
2017-07-14,0.007050788047677757
2017-07-17,0.0030666300442967476
2017-07-18,-0.002394787455288089
2017-07-19,0.00013351131027130236
2017-07-20,-0.008071143281542395
2017-07-21,-0.004956825528088081
2017-07-24,-0.01166936858195794
2017-07-25,-0.0061460348270847755
2017-07-26,0.0011820479168516505
2017-07-27,0.003348527271191162
2017-07-28,-0.001619729678610053
2017-07-31,-0.0020748851484735284
2017-08-01,0.005333559052003579
2017-08-02,0.0017736953729988736
2017-08-03,0.00684451713978578
2017-08-04,0.0069452429814299225
2017-08-07,0.0051312833406189275
2017-08-08,-0.0006375323922913163
2017-08-09,-0.006835445097717092
2017-08-10,-0.00458146456952834
2017-08-11,-0.005508077666461109
2017-08-14,-0.00385358307245251
2017-08-15,0.003947474222240217
2017-08-16,0.004961303896402157
2017-08-17,0.005774176748753502
2017-08-18,0.003914105070227417
2017-08-21,0.004823659058027677
2017-08-22,0.0017368037191978752
2017-08-23,-0.0005992917624930792
2017-08-24,0.000106923810536428
2017-08-25,0.0022224559685144734
2017-08-28,-0.0037045929083776913
2017-08-29,-0.007328130991261376
2017-08-30,-0.007540642338643447
2017-08-31,0.0011722198217947013
2017-09-01,-0.006254172207923843
2017-09-04,-0.00694105524570092
2017-09-05,-0.006652095363800762
2017-09-06,0.0009531216214512164
2017-09-07,-0.00463161897154899
2017-09-08,0.0026495965741319136
2017-09-11,0.003122587555022807
2017-09-12,0.007628108152447883
2017-09-13,-0.0034515456256708336
2017-09-14,0.0029899885482848358
2017-09-15,-0.0026608780716071124
2017-09-18,-0.0005791664223193712
2017-09-19,-2.0752724012438294e-05
2017-09-20,-0.0006720742709373359
2017-09-21,0.0054991405687305935
2017-09-22,-0.00560964553184468
2017-09-25,-0.00985411758768023
2017-09-26,-0.004558955398514253
2017-09-27,-0.004895833503976864
2017-09-28,-0.02120330172465823
2017-09-29,-0.013452916759944337
2017-10-09,-0.0012287660568637625
2017-10-10,-0.003309599242192625
2017-10-11,-0.0008929234739951321
2017-10-12,0.011552028385004891
2017-10-13,0.0018291092444321622
2017-10-16,0.0007385397259718548
2017-10-17,0.002234777657499593
2017-10-18,-0.0033147501437593534
2017-10-19,-0.015222917429914141
2017-10-20,-0.0017750002295939989
2017-10-23,0.0019698431814166176
2017-10-24,0.003043565795854664
2017-10-25,0.0036837084058398864
2017-10-26,0.012466342077028111
2017-10-27,0.0015511263563880821
2017-10-30,0.008432486214335216
2017-10-31,0.0001709006676807309
2017-11-01,0.0024876763738322285
2017-11-02,-0.00017823503708629986
2017-11-03,0.0014197107733938605
2017-11-06,0.0035942023976139534
2017-11-07,0.007225664111406212
2017-11-08,0.010580123094181855
2017-11-09,0.008641051902836287
2017-11-10,0.01720234832585819
2017-11-13,0.022063090490362054
2017-11-14,0.02382572606239837
2017-11-15,0.0029320475860276606
2017-11-16,0.00031287451501242755
2017-11-17,-0.005882128883082269
2017-11-20,-0.009143236650462384
2017-11-21,-0.016163317474594378
2017-11-22,-0.009174281130360083
2017-11-23,-0.021033723728203932
2017-11-24,-0.016344862001968608
2017-11-27,-0.013264854685145617
2017-11-28,0.00015594400159144907
2017-11-29,0.007912265490638282
2017-11-30,0.0037261894266557363
2017-12-01,0.006708963084053613
2017-12-04,0.00453551666107675
2017-12-05,-0.004673905575000495
2017-12-06,0.001219130675367372
2017-12-07,0.006186609609274035
2017-12-08,0.002847455337482498
2017-12-11,0.00510608534937698
2017-12-12,0.0008951711204092319
2017-12-13,0.0086076307014963
2017-12-14,0.00704840048475227
2017-12-15,0.008804969550478048
2017-12-18,0.017420428035188718
2017-12-19,0.014736441441508097
2017-12-20,0.00456208377367712
2017-12-21,0.002413417137570509
2017-12-22,0.0004644685453992232
2017-12-25,-0.011207973640307945
2017-12-26,-0.013475436953014367
2017-12-27,-0.01405997813927702
2017-12-28,-0.014856405098356045
2017-12-29,-0.009283190051324726
2018-01-02,-0.0028293238514107517
2018-01-03,0.008996352917182987
2018-01-04,0.012586628060391264
2018-01-05,0.012106071712158967
2018-01-08,0.02504297572292213
2018-01-09,0.02492045767313798
2018-01-10,0.010328738850477324
2018-01-11,0.011314273356276081
2018-01-12,0.002627312874505589
2018-01-15,-0.004967356299878389
2018-01-16,-0.006508747570610323
2018-01-17,-0.004185747149886468
2018-01-18,-0.010528176460775035
2018-01-19,-0.004980593404189975
2018-01-22,-0.017940548740450223
2018-01-23,-0.01724217721571808
2018-01-24,0.003115064664665681
2018-01-25,0.022313836601148877
2018-01-26,0.02002954801849782
2018-01-29,0.0270501817786397
2018-01-30,0.049117959082083676
2018-01-31,0.020824903579568302
2018-02-01,5.634888205340027e-05
2018-02-02,0.007723916963702601
2018-02-05,-0.010361742354868163
2018-02-06,-0.021119599180702994
2018-02-07,-0.004309588260104968
2018-02-08,0.0008171694618682363
2018-02-09,-0.012666009276550788
2018-02-12,-7.506450886272942e-05
2018-02-13,-0.01805391106585182
2018-02-14,-0.03082980188832496
2018-02-22,-0.025233981923106497
2018-02-23,-0.023108672300476495
2018-02-26,-0.022083855322545545
2018-02-27,-0.01794974025693461
2018-02-28,-0.009848881785188186
2018-03-01,-0.0030261859786873515
2018-03-02,-0.011990196107586693
2018-03-05,-0.008665276286328096
2018-03-06,-0.007789649992950037
2018-03-07,-0.009773122822243525
2018-03-08,-0.00566666708421715
2018-03-09,0.0004554066003976294
2018-03-12,0.004425259217392159
2018-03-13,0.008398338324466795
2018-03-14,0.006788791203306201
2018-03-15,0.0005129288673070206
2018-03-16,0.008976998118782793
2018-03-19,0.010426115267103131
2018-03-20,-0.0011101223691373924
2018-03-21,0.003265896977406098
2018-03-22,0.013220805696400974
2018-03-23,0.0031251614759775295
2018-03-26,-0.005110516195312784
2018-03-27,0.0031886386237209765
2018-03-28,-0.005128390574221237
2018-03-29,-0.013630331438958133
2018-03-30,-0.007516886720147805
2018-04-02,-0.0017649352848453396
2018-04-03,-0.003950244140793096
2018-04-04,-0.003332473508827388
2018-04-09,0.004654726217593884
2018-04-10,0.0011623717171019184
2018-04-11,-0.0042391117140655014
2018-04-12,-0.006318574730576466
2018-04-13,0.0015292718864787017
2018-04-16,-0.002700170444760973
2018-04-17,0.0003206210557395034
2018-04-18,0.005481503246181555
2018-04-19,0.005471945861311559
2018-04-20,-0.00847527237571641
2018-04-23,-0.011674043720327138
2018-04-24,-0.0073140240373925115
2018-04-25,-0.0055195145749810295
2018-04-26,-0.005125564695977572
2018-04-27,0.002650741705359491
2018-05-02,0.0029135560205749353
2018-05-03,-0.0036945796996244
2018-05-04,-0.0024959821227547793
2018-05-07,0.004947476143496548
2018-05-08,0.0020796799436288566
2018-05-09,0.007200046653301368
2018-05-10,0.006444723987594043
2018-05-11,-5.879349035937866e-05
2018-05-14,-0.014554083618776668
2018-05-15,-0.008853379411488432
2018-05-16,-0.004624249872450222
2018-05-17,0.00047342352299879656
2018-05-18,0.006820485695304788
2018-05-21,0.014489510774396133
2018-05-22,0.00315786307668358
2018-05-23,0.010880211699231902
2018-05-24,0.013803749641914893
2018-05-25,0.008205780896925483
2018-05-28,0.008643992152071156
2018-05-29,0.018811797963501273
2018-05-30,0.01038441704832415
2018-05-31,0.0007333436402031344
2018-06-01,0.008290747418315647
2018-06-04,4.724724420550157e-05
2018-06-05,-0.006992687674830538
2018-06-06,-0.006516704856820765
2018-06-07,-0.00044281332763434177
2018-06-08,-0.006072017783420838
2018-06-11,0.022675528880197922
2018-06-12,0.015505610801868387
2018-06-13,0.019903669887086292
2018-06-14,0.01820383113266668
2018-06-15,0.016195034908246322
2018-06-19,0.0007634957463953686
2018-06-20,-0.0022694883968797687
2018-06-21,0.011612966147671322
2018-06-22,0.005158507451464345
2018-06-25,0.014140221976842107
2018-06-26,-0.003023992290315034
2018-06-27,0.00014892786365827693
2018-06-28,-0.0003829463717720215
2018-06-29,-0.0023632399351860567
2018-07-02,-0.010254495876885046
2018-07-03,-0.011373711951197407
2018-07-04,-0.0038485839060528127
2018-07-05,-0.004227870541929406
2018-07-06,0.0030137808143703704
2018-07-09,0.004059692683226075
2018-07-10,0.003232851211867449
2018-07-11,-0.0009443389221523869
2018-07-12,0.001757203851537754
2018-07-13,-0.00012191616745785673
2018-07-16,-0.009553500976894074
2018-07-17,-0.010532708482878888
2018-07-18,-0.01250515343505464
2018-07-19,-0.01718734826354532
2018-07-20,-0.01653984859031713
2018-07-23,-0.015392005007894696
2018-07-24,-0.006688972108264889
2018-07-25,-0.0048832250491278595
2018-07-26,0.0028503813617142826
2018-07-27,0.0015639141763894027
2018-07-30,0.013108824075675402
2018-07-31,0.006472949111918903
2018-08-01,0.00362490662850936
2018-08-02,0.002166322030493054
2018-08-03,-0.0018437293206099072
2018-08-06,-0.010030832417857585
2018-08-07,0.0033336946867012817
2018-08-08,0.002907699499701456
2018-08-09,0.004220186543745119
2018-08-10,-0.0007740351333251974
2018-08-13,-0.00205462951771785
2018-08-14,0.0005251157490216221
2018-08-15,-0.0009196014411349306
2018-08-16,-0.006141800245439085
2018-08-17,0.002457119901306289
2018-08-20,-0.0016744060462635102
2018-08-21,0.00015220518401936473
2018-08-22,-0.0010043348424172826
2018-08-23,0.00042017249915960505
2018-08-24,0.0008851034836991979
2018-08-27,0.007469863392966864
2018-08-28,0.003587838246061856
2018-08-29,0.005708167303001648
2018-08-30,0.009538640841392885
2018-08-31,0.005177402191362194
2018-09-03,0.0058676320494255065
2018-09-04,0.005827875275415825
2018-09-05,0.001104050094134168
2018-09-06,-0.00751000926540895
2018-09-07,-0.005651897333455862
2018-09-10,-0.0016400681100709337
2018-09-11,-0.009677405179782612
2018-09-12,-0.013151975788317347
2018-09-13,-0.008393938729370571
2018-09-14,-0.0075374356641456745
2018-09-17,-0.0067419119137279646
2018-09-18,0.0019980515232241765
2018-09-19,0.004011695608210486
2018-09-20,0.00463771756579642
2018-09-21,0.0072860870627829664
2018-09-25,0.003366251207747948
2018-09-26,-0.001556727368398108
2018-09-27,0.015396558885741991
2018-09-28,0.01396500229296277
2018-10-08,0.016859943031846993
2018-10-09,0.014200732903756473
2018-10-10,0.015929258140673037
2018-10-11,0.010790647298890524
2018-10-12,0.00857624426783133
2018-10-15,-0.002016850278231959
2018-10-16,-0.00604647056456897
2018-10-17,-0.011213639054733437
2018-10-18,-0.02867473385585762
2018-10-19,-0.01660347381135279
2018-10-22,-0.0173618871347329
2018-10-23,-0.017774889614099832
2018-10-24,-0.014275069330464891
2018-10-25,-0.015660527151714256
2018-10-26,-0.013329727292511917
2018-10-29,-0.005545223049927044
2018-10-30,-0.0074814839856226015
2018-10-31,-0.010211597746228498
2018-11-01,-0.004060224812594571
2018-11-02,-0.008660191032845758
2018-11-05,-0.007102892795115921
2018-11-06,-0.004900619490896523
2018-11-07,-0.007091923168360111
2018-11-08,-0.010257230360331755
2018-11-09,-0.010149963153148516
2018-11-12,-0.007110454134242921
2018-11-13,-0.0004561307463946424
2018-11-14,0.004831136291235097
2018-11-15,0.004121299703807728
2018-11-16,0.010242784077057483
2018-11-19,0.008773145765685407
2018-11-20,0.005642485447109508
2018-11-21,0.009062057460457866
2018-11-22,0.0018515536590794565
2018-11-23,-0.0071607236618115525
2018-11-26,-0.0056642612792198906
2018-11-27,-0.0007551256198395466
2018-11-28,-0.004460586497243622
2018-11-29,0.0017101946436925974
2018-11-30,0.004426883501767881
2018-12-03,0.0036368811102586857
2018-12-04,-6.649307987233524e-05
2018-12-05,0.0016385981679958167
2018-12-06,-0.0018934358147729103
2018-12-07,0.0011457613555236335
2018-12-10,-0.0036092403854820565
2018-12-11,0.0009336204755967525
2018-12-12,0.004006394171610014
2018-12-13,0.0025514093785797484
2018-12-14,0.010595419096986261
2018-12-17,0.004802567771743725
2018-12-18,0.0025308924272652612
2018-12-19,-0.001810444872583767
2018-12-20,0.0084603008405495
2018-12-21,0.003450810368960666
2018-12-24,0.014008615718302971
2018-12-25,0.013099664502370507
2018-12-26,0.004684703162909577
2018-12-27,-0.010983620454762503
2018-12-28,-0.0076981816844893195
2019-01-02,-0.007956054778212374
2019-01-03,-0.009906632490571731
2019-01-04,-0.006524111483926804
2019-01-07,0.0069378365605763295
2019-01-08,7.267311105186441e-05
2019-01-09,-0.0020678777201906433
2019-01-10,-0.000772196816531275
2019-01-11,0.0009487219940120771
2019-01-14,-0.005913733351543465
2019-01-15,0.004880892838290044
2019-01-16,0.0029297749348115064
2019-01-17,-0.0019789224262353276
2019-01-18,0.002122753416622107
2019-01-21,0.008675236555787894
2019-01-22,0.003876577278241992
2019-01-23,0.015077234793300427
2019-01-24,0.014791782042290258
2019-01-25,0.00888869830075328
2019-01-28,-0.0018124862741156524
2019-01-29,-0.003723780507255227
2019-01-30,-0.01555700951841004
2019-01-31,-0.008531399452896889
2019-02-01,-0.002944896914847922
2019-02-11,-0.005613902344283363
2019-02-12,-0.009338859611956858
2019-02-13,-0.005104690647033137
2019-02-14,-0.004362252669837925
2019-02-15,-0.0019465661525761777
2019-02-18,0.0006595351699717061
2019-02-19,-0.010391381634595936
2019-02-20,-0.010702955358821556
2019-02-21,-0.01779995409162221
2019-02-22,-0.009139113721021094
2019-02-25,-0.006837943957669158
2019-02-26,0.005246640437394499
2019-02-27,0.0012279397771252643
2019-02-28,0.002398601011628157
2019-03-01,-0.001873380587215888
2019-03-04,-0.005279894991027018
2019-03-05,-0.008128866587918504
2019-03-06,-0.007122966786584244
2019-03-07,-0.005039682592183847
2019-03-08,-0.00539912870625614
2019-03-11,-0.011954225223765158
2019-03-12,-0.0029142939436851006
2019-03-13,0.0018442332936124475
2019-03-14,0.0067230288258588525
2019-03-15,0.002623003980210637
2019-03-18,0.009763902464820895
2019-03-19,0.00965008844991793
2019-03-20,-0.00045093305462014927
2019-03-21,-0.0038851777153293826
2019-03-22,0.005521977033857518
2019-03-25,0.0041515898653469024
2019-03-26,0.00027074817546098723
2019-03-27,0.0024038947590121276
2019-03-28,0.0025027717517061426
2019-03-29,-0.01290049894936033
2019-04-01,-0.00619052524040084
2019-04-02,-0.0037089620850836932
2019-04-03,0.0007401674166372758
2019-04-04,-0.0025146552970213704
2019-04-08,0.002520345472854839
2019-04-09,-0.001972294259001764
2019-04-10,-0.002768037983458857
2019-04-11,-0.0004449441573274246
2019-04-12,0.0004094629291658755
2019-04-15,4.9323631533967904e-05
2019-04-16,0.004668905175567027
2019-04-17,0.0030365863006638905
2019-04-18,0.0023201569274420436
2019-04-19,-0.002570809817819694
2019-04-22,0.00046355587998224423
2019-04-23,-0.0007350522263142381
2019-04-24,0.0005494115203670893
2019-04-25,0.0021365783661901547
2019-04-26,0.001615570086028778
2019-04-29,0.00319668572962567
2019-04-30,0.004427142283785414
2019-05-06,0.006077839771358402
2019-05-07,0.005223626395708095
2019-05-08,0.0059376616069327995
2019-05-09,-0.009187308356868932
2019-05-10,-0.0070045763711417824
2019-05-13,-0.005732359899344994
2019-05-14,-0.0038272023446539252
2019-05-15,-0.004275376301025296
2019-05-16,0.0061903680292181296
2019-05-17,0.004819262424354716
2019-05-20,0.0018343658307898945
2019-05-21,0.0032653385240887997
2019-05-22,0.0061885411690022
2019-05-23,0.006640773401283204
2019-05-24,0.0018916200084175966
2019-05-27,0.008665245591867031
2019-05-28,0.003909782778637339
2019-05-29,-0.001178792309988303
2019-05-30,0.0007010925166282996
2019-05-31,0.00017166767679184687
2019-06-03,-0.008283302517511113
2019-06-04,-0.006680192540239049
2019-06-05,-0.0027783596021877504
2019-06-06,-0.0016213386610238953
2019-06-10,-0.004203762999746237
2019-06-11,-0.00027225895909914824
2019-06-12,-0.0012507694228552496
2019-06-13,-0.004209109470646531
2019-06-14,-0.010316471170123957
2019-06-17,-0.0075118507623550546
2019-06-18,-0.005159385976154538
2019-06-19,-0.003555231674389432
2019-06-20,-0.003490608909576679
2019-06-21,0.011202251989894996
2019-06-24,0.012848393939377523
2019-06-25,0.006709170049487689
2019-06-26,-0.002138248027281086
2019-06-27,-0.005385203849388303
2019-06-28,-0.009799150724685549
2019-07-01,0.0012098888920397538
2019-07-02,0.002361977538788144
2019-07-03,0.01695638806878788
2019-07-04,0.015321943249545097
2019-07-05,0.011924628851652685
2019-07-08,0.00328263803479699
2019-07-09,0.0007064095298677797
2019-07-10,-0.003769356093093347
2019-07-11,-0.0009908310917593924
2019-07-12,-0.005053840941789561
2019-07-15,-7.654534686622749e-05
2019-07-16,0.0007274999160698402
2019-07-17,0.00010734478211829167
2019-07-18,-0.00028900631560361406
2019-07-19,0.005843529892774677
2019-07-22,0.0005326020725470171
2019-07-23,0.0018418432964480043
2019-07-24,0.0028749079134609123
2019-07-25,0.0014286079500984272
2019-07-26,0.00071331247247991
2019-07-29,0.0004167455516156833
2019-07-30,0.007426460609289941
2019-07-31,-0.0004027131402231099
2019-08-01,-0.0012540862301450538
2019-08-02,0.003793736894180638
2019-08-05,0.008430216820505276
2019-08-06,-0.0046858131596011375
2019-08-07,-0.00040827636790630693
2019-08-08,0.0070386904984649674
2019-08-09,0.00520230611770045
2019-08-12,-0.00806057214046604
2019-08-13,-0.0010213258796775149
2019-08-14,-0.00017473149423793966
2019-08-15,-0.008173709088107503
2019-08-16,-0.0038005900028076356
2019-08-19,0.0008981630938911019
2019-08-20,-0.0013836891343489421
2019-08-21,-0.0020189958054221795
2019-08-22,-0.003201527293613823
2019-08-23,-0.002498664514770976
2019-08-26,-0.00863999949001443
2019-08-27,-0.002086163601478952
2019-08-28,-0.007317777830990116
2019-08-29,-0.009013109125148914
2019-08-30,-0.010207129353311074
2019-09-02,-0.008871562503484975
2019-09-03,-0.007488636603467366
2019-09-04,-0.00775316580305469
2019-09-05,-0.005708735358023832
2019-09-06,-0.007227644061044104
2019-09-09,-0.003711498744988313
2019-09-10,0.0005469237799643756
2019-09-11,0.002716221558970272
2019-09-12,0.005695807421601041
2019-09-16,0.009844396283093864
2019-09-17,0.0050072450800163985
2019-09-18,0.004258220091235531
2019-09-19,0.002988982979627859
2019-09-20,0.0022923569615420462
2019-09-23,-0.002498861231346995
2019-09-24,-0.002737546914079736
2019-09-25,0.0005666483419607682
2019-09-26,0.0003265536503488154
2019-09-27,-0.005998096729027967
2019-09-30,-0.0026700868870461816
2019-10-08,-0.00452816316234415
2019-10-09,-0.007507517442373796
2019-10-10,-0.005438435362780703
2019-10-11,-0.0008149581947008051
2019-10-14,-0.0023116774396176078
2019-10-15,0.0019080687722802568
2019-10-16,0.002921486695361065
2019-10-17,-0.00027996175684722423
2019-10-18,0.004139884965925787
2019-10-21,-0.0009841874053220599
2019-10-22,0.0005382179969517556
2019-10-23,0.003269123545783812
2019-10-24,0.0013723994797265526
2019-10-25,0.003048990423908395
2019-10-28,0.007961361231000653
2019-10-29,0.0017455608810345337
2019-10-30,0.0013777049332275738
2019-10-31,0.0017582603712680347
2019-11-01,-0.001625717582459811
2019-11-04,0.0022472980787839464
2019-11-05,0.005145414178164899
2019-11-06,0.008790341386213247
2019-11-07,0.007406082719656553
2019-11-08,0.005987066885609779
2019-11-11,0.0007891425019307608
2019-11-12,0.0011007069052430662
2019-11-13,-0.006779629142647081
2019-11-14,-0.0046505675832080005
2019-11-15,-0.009827299565207986
2019-11-18,-0.01666146615178335
2019-11-19,-0.014488423771626149
2019-11-20,-0.012073119458725266
2019-11-21,-0.012529712503219426
2019-11-22,-0.005127797191170306
2019-11-25,0.009932737654474683
2019-11-26,0.009215793659820212
2019-11-27,0.0032105223365607727
2019-11-28,0.0025572104179675415
2019-11-29,0.007077235916453182
2019-12-02,0.0047171211783464655
2019-12-03,0.00623317940030459
2019-12-04,0.002653862312655091
2019-12-05,0.00577201492376439
2019-12-06,0.0019551223657428216
2019-12-09,0.004998701698498264
2019-12-10,-0.0032795338569750337
2019-12-11,0.001313849252068712
2019-12-12,-0.008105997386681236
2019-12-13,-0.005529402430100241
2019-12-16,-0.006502462979558431
2019-12-17,-0.003369554675723409
2019-12-18,0.0012769881934173973
2019-12-19,0.0005185986173223676
2019-12-20,-0.006111168495748514
2019-12-23,-0.0051096735483170015
2019-12-24,-0.0033334259940335093
2019-12-25,-0.005304293678959775
2019-12-26,-0.004908803812229544
2019-12-27,0.004555983289568525
2019-12-30,0.00019662978529796926
2019-12-31,0.0024993358981218235
2020-01-02,0.0011654469182547662
2020-01-03,0.006290343085859083
2020-01-06,0.01228587091585439
2020-01-07,0.015968584721516913
2020-01-08,0.018357035496050476
2020-01-09,0.01777838962959519
2020-01-10,0.0117891481124936
2020-01-13,0.011594617343809607
2020-01-14,0.02028535821363993
2020-01-15,0.017560027672487613
2020-01-16,0.024804447704096105
2020-01-17,0.04365910110020395
2020-01-20,0.03675518886263234
2020-01-21,0.03295915442227123
2020-01-22,0.031682563874798175
2020-01-23,0.025572509805978767
2020-02-03,0.008816048306948293
2020-02-04,-0.0002400114287378352
2020-02-05,0.0064792951285129255
2020-02-06,0.00784150540334164
2020-02-07,-0.001276181921355122
2020-02-10,0.00676365478103709
2020-02-11,0.008908307219607132
2020-02-12,0.012479502545171378
2020-02-13,0.014058207096873113
2020-02-14,0.024541093148855667
2020-02-17,0.034547707964435674
2020-02-18,0.03458811323869603
2020-02-19,0.019270674893420086
2020-02-20,0.011684482682580943
2020-02-21,0.003292010583770842
2020-02-24,-0.016619158787805177
2020-02-25,-0.022875641794574474
2020-02-26,-0.010344829905614047
2020-02-27,-0.012315613349485206
2020-02-28,-0.0037721044421496173
2020-03-02,-0.0017449527029002772
2020-03-03,0.00348486972317923
2020-03-04,0.00294460230336523
2020-03-05,0.014267593379953557
2020-03-06,0.021499763791782346
2020-03-09,0.010588397744391187
2020-03-10,0.007816544611564016
2020-03-11,0.01681712094217766
2020-03-12,0.029269871551587147
2020-03-13,0.005339926507789264
2020-03-16,0.010369793943339055
2020-03-17,-0.005952209867531755
2020-03-18,-0.012806576480925544
2020-03-19,-0.020282690808706302
2020-03-20,-0.01343583195265932
2020-03-23,-0.006045252955926044
2020-03-24,0.002597504998033031
2020-03-25,0.006868539843467102
2020-03-26,0.003853949811232793
2020-03-27,0.009261888781900564
2020-03-30,0.011640225328628098
2020-03-31,0.006255424787832711
2020-04-01,0.0033215640953451267
2020-04-02,-0.004067132270029479
2020-04-03,-0.006827854695941559
2020-04-07,-0.005788675862551527
2020-04-08,0.0016824802258130545
2020-04-09,0.004100853540219341
2020-04-10,0.009553719509551846
2020-04-13,0.016007265368108863
2020-04-14,0.013639770144733939
2020-04-15,0.01543499523970891
2020-04-16,0.006831345491011579
2020-04-17,0.0033556445706357085
2020-04-20,0.006178228408597779
2020-04-21,0.015742071964966565
2020-04-22,0.0067303089716007495
2020-04-23,0.0031999956655600886
2020-04-24,0.011189075971779525
2020-04-27,0.012322557386168137
2020-04-28,0.0011618576526848563
2020-04-29,-0.0004487759686253763
2020-04-30,0.00941127170611283
2020-05-06,0.006489134209343713
2020-05-07,0.006860117538317286
2020-05-08,0.013220313870359487
2020-05-11,0.010782607599161831
2020-05-12,0.0068971832290433055
2020-05-13,0.0031011802830297266
2020-05-14,-0.0018817331609284256
2020-05-15,-0.005255339957020941
2020-05-18,-0.0006548335924334292
2020-05-19,0.0009514456155489057
2020-05-20,-0.0037262774868273545
2020-05-21,-0.004779864375503555
2020-05-22,-0.007355638347985319
2020-05-25,-0.0021508501567541957
2020-05-26,-0.007706350379903226
2020-05-27,-0.0006272147602792918
2020-05-28,0.004136579911441295
2020-05-29,0.001291484214967456
2020-06-01,-0.002512867168103958
2020-06-02,0.0007019989641380044
2020-06-03,0.005369208396284264
2020-06-04,0.004926247759882562
2020-06-05,0.007037026222399705
2020-06-08,0.011928078613946352
2020-06-09,0.007885389931939615
2020-06-10,0.0032517079556126922
2020-06-11,0.0019092018410906842
2020-06-12,0.0031222479494151835
2020-06-15,0.008405364577004401
2020-06-16,0.01625195950671364
2020-06-17,0.015645578526192735
2020-06-18,0.01889808965127003
2020-06-19,0.016197480006483123
2020-06-22,-0.00043449208503449493
2020-06-23,-0.020400639546754893
2020-06-24,-0.02284164452748603
2020-06-29,-0.045871918806745515
2020-06-30,-0.04061258616101353
2020-07-01,-0.0398792217149577
2020-07-02,-0.021368240024723928
2020-07-03,-0.0007231320330900043
2020-07-06,0.0012700215588828945
2020-07-07,0.005799546302311762
2020-07-08,0.0006554285384251669
2020-07-09,-0.014178486272384425
2020-07-10,-0.02312367962750367
2020-07-13,-0.017743541055171168
2020-07-14,-0.02308057823368569
2020-07-15,-0.018537057889628245
2020-07-16,-0.0026737596271101463
2020-07-17,-0.006233412133332323
2020-07-20,-0.010017279042767915
2020-07-21,-0.005857851977475747
2020-07-22,0.0009973193539894011
2020-07-23,-0.00018834596980116768
2020-07-24,0.021420119822845158
2020-07-27,0.03250500891005083
2020-07-28,0.01949479339669373
2020-07-29,0.012655907024416864
2020-07-30,0.012174321809804302
2020-07-31,-0.0032816277440444576
2020-08-03,-0.015316380308680912
2020-08-04,-0.01621612066349333
2020-08-05,-0.030960733381977235
2020-08-06,-0.03586356094928155
2020-08-07,-0.02714933919448248
2020-08-10,-0.016755203005399115
2020-08-11,-0.006941059235285086
2020-08-12,-0.0072938909334726194
2020-08-13,-0.001976417864025221
2020-08-14,-0.006558120991859052
2020-08-17,-0.010516353042965172
2020-08-18,-0.010967390123910398
2020-08-19,-0.005496093709071703
2020-08-20,0.0003874886566566692
2020-08-21,0.0050342025244369416
2020-08-24,0.003951231326415252
2020-08-25,0.011980697178798638
2020-08-26,0.019113110417155292
2020-08-27,0.009521763354261047
2020-08-28,0.000931015700521648
2020-08-31,-0.011500105837418798
2020-09-01,-0.018691658975043234
2020-09-02,-0.029171210644138086
2020-09-03,-0.027566756445638847
2020-09-04,-0.02291251074000014
2020-09-07,-0.012240401530254118
2020-09-08,-0.0022523250685530316
2020-09-09,0.0006076916782159648
2020-09-10,0.0026982876985382565
2020-09-11,-0.0028547046526506865
2020-09-14,-0.0013883207480124091
2020-09-15,0.002171532031624405
2020-09-16,0.013246514738340768
2020-09-17,0.010656690986369047
2020-09-18,0.010842841889508462
2020-09-21,0.006460565591727658
2020-09-22,0.005550673633408811
2020-09-23,0.0046072380690410485
2020-09-24,0.0039775813956983794
2020-09-25,0.005484246206738361
2020-09-28,0.017974390232945864
2020-09-29,0.003951006128607385
2020-09-30,0.00043552541451227084
2020-10-09,0.0003953840061907462
2020-10-12,-0.008142554575136244
2020-10-13,-0.004300978167630037
2020-10-14,-0.006993030239854728
2020-10-15,-0.0036399336172987136
2020-10-16,-0.013937135589731645
2020-10-19,-0.004867261973815538
2020-10-20,-0.004678890962721638
2020-10-21,0.0012981321111513828
2020-10-22,0.004812424195280848
2020-10-23,0.017125807126057085
2020-10-26,0.01729763978391683
2020-10-27,0.003108550641028375
2020-10-28,-0.0011069590729462994
2020-10-29,-0.01212821369405415
2020-10-30,-0.022969389260581095
2020-11-02,-0.021902727881628913
2020-11-03,-0.019517873233572087
2020-11-04,-0.03196542259782628
2020-11-05,-0.023101566156787014
2020-11-06,-0.014444259393858627
2020-11-09,-0.031346877947117664
2020-11-10,-0.026779630963777102
2020-11-11,-0.014749627832829444
2020-11-12,-0.015265780505111931
2020-11-13,-0.021388384956288874
2020-11-16,-0.017491523073688325
2020-11-17,-0.014036281012030935
2020-11-18,-0.012074777322187442
2020-11-19,-0.012382891844467454
2020-11-20,-0.015132689869268722
2020-11-23,-0.010293674044061462
2020-11-24,-0.005225920965754108
2020-11-25,-0.0004744378377249253
2020-11-26,0.004080251892205369
2020-11-27,0.013023709775635465
2020-11-30,0.014801881020008885
2020-12-01,0.015937430114570994
2020-12-02,0.006578899835483112
2020-12-03,0.0041789474956621595
2020-12-04,0.00024401603508716896
2020-12-07,0.004125996316233135
2020-12-08,-0.0001372112261824477
2020-12-09,0.00229355135943932
2020-12-10,0.0033976565279320095
2020-12-11,0.004534685247222461
2020-12-14,0.0016735515055677826
2020-12-15,0.007915165658937696
2020-12-16,0.0031569210626034025
2020-12-17,0.006630852825595421
2020-12-18,0.008842841289680138
2020-12-21,0.01111247519239717
2020-12-22,-0.005075060743666729
2020-12-23,0.0016409652040115762
2020-12-24,0.0020214024414682077
2020-12-25,0.009206222539600465
2020-12-28,0.01813901636189536
2020-12-29,0.023523549387807142
2020-12-30,0.03014812896779837
2020-12-31,0.017634948991549933
2021-01-04,-0.0037648208941780895
2021-01-05,-0.006005293067989921
2021-01-06,-0.0076018173876302424
2021-01-07,-0.031239315940866992
2021-01-08,-0.022326777129596867
2021-01-11,-0.011683114366468352
2021-01-12,-0.03930438088178462
2021-01-13,-0.020229660255585608
2021-01-14,0.005115910986846764
2021-01-15,0.02043424289043696
2021-01-18,0.021321919422008343
2021-01-19,0.026928295387165978
2021-01-20,0.0085944064483854
2021-01-21,0.004766231686409446
2021-01-22,-0.0016825023559542615
2021-01-25,-0.01269874142795378
2021-01-26,0.006383415196436012
2021-01-27,0.010124861894716121
2021-01-28,0.015957921324447406
2021-01-29,0.00916891963815811
2021-02-01,0.011066349444931702
2021-02-02,0.007756098008064304
2021-02-03,0.017237220886440138
2021-02-04,-0.014871486158418143
2021-02-05,-0.026316801890942
2021-02-08,-0.051846348727026995
2021-02-09,-0.05466301106737555
2021-02-10,-0.060545613017676955
2021-02-18,-0.05441061319240202
2021-02-19,-0.03627583580975477
2021-02-22,-0.017224479196406194
2021-02-23,-0.017097320253881148
2021-02-24,-0.011622711054422913
2021-02-25,-0.008722012688815312
2021-02-26,-0.014672476507678205
2021-03-01,-0.027236391499747888
2021-03-02,-0.021917328341917373
2021-03-03,-0.006909643676734335
2021-03-04,-0.004733231838624874
2021-03-05,-0.0019051354877031995
2021-03-08,0.003785050020530984
2021-03-09,0.00420432110831496
2021-03-10,-0.01065266694179355
2021-03-11,-0.003088075689792251
2021-03-12,-0.008015227884674707
2021-03-15,-0.0020536315053886756
2021-03-16,-0.00022271813586309357
2021-03-17,0.00048736756102047904
2021-03-18,-0.0025036556915374354
2021-03-19,0.0054644854953669626
2021-03-22,0.007602887359864681
2021-03-23,0.008954181041104221
2021-03-24,0.006082173671790753
2021-03-25,0.011817561986459547
2021-03-26,0.01360381281109295
2021-03-29,0.011925730371051286
2021-03-30,-0.0004377420375355802
2021-03-31,0.0032136152803290408
2021-04-01,-0.004717262073392765
2021-04-02,-0.008027506690993749
2021-04-06,0.0013052322463258555
2021-04-07,0.007065931893228011
2021-04-08,0.0010392019253772818
2021-04-09,-0.003088735246324009
2021-04-12,0.0013644116816592528
2021-04-13,-0.0019869831483640896
2021-04-14,0.003050453030141372
2021-04-15,0.004361329943966884
2021-04-16,0.0224359990280344
2021-04-19,0.016535767466764436
2021-04-20,0.02129778460248586
2021-04-21,0.019687620317560953
2021-04-22,0.01794527079890763
2021-04-23,0.017189211664258495
2021-04-26,0.012318386581349705
2021-04-27,-0.004773181806946761
2021-04-28,-0.005337818769312315
2021-04-29,0.002646686743178292
2021-04-30,0.0017244915739187258
2021-05-06,0.006407492586788333
2021-05-07,0.016414966540415996
2021-05-10,0.017686037797475747
2021-05-11,0.006955988953643858
2021-05-12,0.004995463872792745
2021-05-13,-0.0004930430993244882
2021-05-14,6.079607910780289e-05
2021-05-17,-0.003424596172643641
2021-05-18,0.002527210091573237
2021-05-19,-0.0023989554517337627
2021-05-20,0.0016728630641259928
2021-05-21,0.00018961885556131874
2021-05-24,0.00540521091445937
2021-05-25,0.004146842698071583
2021-05-26,0.003150825579916694
2021-05-27,-0.0016704254506265666
2021-05-28,0.0021139881712845927
2021-05-31,-0.001638707927355201
2021-06-01,-0.007412531780164161
2021-06-02,0.0026378698279584155
2021-06-03,0.011573588845717811
2021-06-04,0.0028659081047476857
2021-06-07,0.0009856876580707184
2021-06-08,-0.005722020168659133
2021-06-09,0.004099709863072953
2021-06-10,0.00011219319211347965
2021-06-11,0.01063650954433492
2021-06-15,0.006414320784525401
2021-06-16,0.018309640074270016
2021-06-17,0.0026609673861866783
2021-06-18,0.005012959735119948
2021-06-21,0.001857982482863372
2021-06-22,0.0036905136860015866
2021-06-23,0.011697484121436234
2021-06-24,0.01357878650551034
2021-06-25,0.005512519404675837
2021-06-28,0.011586902509388656
2021-06-29,0.004894813991169885
2021-06-30,0.0116499852723279
2021-07-01,0.022682040300399997
2021-07-02,0.020418058489619507
2021-07-05,0.015587638406964368
2021-07-06,0.013357485834297122
2021-07-07,0.005255155889798718
2021-07-08,-0.00033481125319854976
2021-07-09,-0.002654775485677242
2021-07-12,0.0008085855226564048
2021-07-13,0.018845230485925974
2021-07-14,0.02791460530420961
2021-07-15,0.0156384928561613
2021-07-16,0.02510605660146245
2021-07-19,0.02216177503305664
2021-07-20,0.016054962418266365
2021-07-21,0.003491962569750262
2021-07-22,0.02680810417787364
2021-07-23,0.030614115158327564
2021-07-26,0.013594076327578641
2021-07-27,0.006257559071644967
2021-07-28,0.020199019361694732
2021-07-29,0.008105142609580816
2021-07-30,0.0072075249217793316
2021-08-02,-0.0004488739855839155
2021-08-03,0.006249362363695641
2021-08-04,-0.01122280527559644
2021-08-05,-0.015398050631837992
2021-08-06,-0.021142335493578645
2021-08-09,-0.01575307376094479
2021-08-10,-0.018980043435485962
2021-08-11,-0.014431263608562075
2021-08-12,-0.002829402340205161
2021-08-13,-0.002829540533028408
2021-08-16,0.013019824533248495
2021-08-17,0.02204939798222786
2021-08-18,0.019481477075031374
2021-08-19,0.01013122096375603
2021-08-20,0.016033915023478076
2021-08-23,0.015615043325414284
2021-08-24,0.007879989425526238
2021-08-25,-0.013139191713224738
2021-08-26,-0.021567365478112836
2021-08-27,-0.03444711170786825
2021-08-30,-0.03534499335000734
2021-08-31,-0.0258989154264365
2021-09-01,-0.01606666631013379
2021-09-02,-0.002039914763614127
2021-09-03,0.011983940256785976
2021-09-06,0.006767594954985875
2021-09-07,0.011201656770451079
2021-09-08,0.024066067285104686
2021-09-09,0.005004061724589667
2021-09-10,-0.0031495555737195077
2021-09-13,0.0014608646548097647
2021-09-14,-0.006289659189606231
2021-09-15,-0.014870657259116658
2021-09-16,-0.018439199686958167
2021-09-17,-0.00952158931226612
2021-09-22,-0.02680143115972296
2021-09-23,-0.01831166599534002
2021-09-24,-0.01988918747870992
2021-09-27,-0.00999787926851228
2021-09-28,-0.013549868286835048
2021-09-29,-0.0061633881636424335
2021-09-30,-0.01370249263523627
2021-10-08,0.0012369951266339605
2021-10-11,0.013479021489405928
2021-10-12,0.010527996928068665
2021-10-13,0.003690088326948591
2021-10-14,0.008547939125598817
2021-10-15,-0.009316533577241909
2021-10-18,-0.011185127125131207
2021-10-19,-0.002374358911988754
2021-10-20,0.008668146934403525
2021-10-21,-0.0037941740584493296
2021-10-22,0.0068443772829773885
2021-10-25,0.0005307751732321342
2021-10-26,-0.0008434936777326867
2021-10-27,-0.008894971705753655
2021-10-28,-0.0007166438682916177
2021-10-29,-0.006053947871856659
2021-11-01,0.0017338500010436633
2021-11-02,0.004432543899819971
2021-11-03,0.00015919016450539447
2021-11-04,-0.005396700671997254
2021-11-05,0.00017853948620962824
2021-11-08,-0.02111628774605406
2021-11-09,-0.027325697811733878
2021-11-10,-0.01859609044671228
2021-11-11,-0.005801885800838985
2021-11-12,-0.0023396541116629424
2021-11-15,0.017144975149645282
2021-11-16,0.026231293901478703
2021-11-17,0.01868501453753667
2021-11-18,0.006873976443113318
2021-11-19,0.015956088159579166
2021-11-22,0.01391609615458782
2021-11-23,0.02119742081731592
2021-11-24,0.01795461970643426
2021-11-25,0.02123607747271331
2021-11-26,0.012080810428857093
2021-11-29,0.00796244539978998
2021-11-30,-0.011808505845468404
2021-12-01,-0.014738219454503178
2021-12-02,-0.019661805070879352
2021-12-03,-0.013080166199834667
2021-12-06,-0.01653378420776578
2021-12-07,-0.005042210881567739
2021-12-08,-0.0005649394998527774
2021-12-09,0.011812448211910288
2021-12-10,0.008957006195262898
2021-12-13,0.006548979050734684
2021-12-14,0.0009733945226016831
2021-12-15,-0.006791419459302751
2021-12-16,-0.007306903674451628
2021-12-17,-0.011913226016554597
2021-12-20,-0.013667563136009768
2021-12-21,-0.003985402512569668
2021-12-22,-0.0006026868967815907
2021-12-23,0.0019815021064339515
2021-12-24,0.004287334616121402
2021-12-27,0.0013131011263990476
2021-12-28,-0.0063370795031534085
2021-12-29,-0.0031614506164479705
2021-12-30,-0.0187918969522377
2021-12-31,-0.018635787780933045
2022-01-04,-0.02312384427494225
2022-01-05,-0.017720778284846844
2022-01-06,-0.023364016977709894
2022-01-07,-0.0056349135366655315
2022-01-10,0.003850756732383058
2022-01-11,0.0072425184638033584
2022-01-12,0.0042822742593232755
2022-01-13,-0.0029827274352606263
2022-01-14,-0.0060988332264629765
2022-01-17,-0.004335882492437513
2022-01-18,0.003585323031405182
2022-01-19,0.006792299277231821
2022-01-20,0.017473667231240254
2022-01-21,0.014107710567769362
2022-01-24,-0.001568165926950072
2022-01-25,-0.008295826336010078
2022-01-26,-0.01160810496047408
2022-01-27,-0.019527323872638832
2022-01-28,-0.012334920435317495
2022-02-07,-0.0031569219767680207
2022-02-08,0.0002072052512186664
2022-02-09,-0.002245714795274429
2022-02-10,0.004987709224793302
2022-02-11,0.003555957743940139
2022-02-14,0.007371126965654163
2022-02-15,0.014004760994765419
2022-02-16,0.022313807329023792
2022-02-17,0.03068094540800307
2022-02-18,0.027512347611136308
2022-02-21,0.024490757881918554
2022-02-22,0.008851191846820587
2022-02-23,0.015555398151135675
2022-02-24,0.0035092217718790224
2022-02-25,0.014373504057246196
2022-02-28,0.02415443055333813
2022-03-01,0.03535923171636573
2022-03-02,0.03456948398795756
2022-03-03,0.023181057218598228
2022-03-04,0.02184621686932474
2022-03-07,0.018871474691366023
2022-03-08,0.028576265741580224
2022-03-09,0.002897041188661773
2022-03-10,-0.004551820094651931
2022-03-11,-0.009687518791272786
2022-03-14,-0.014629804599516183
2022-03-15,-0.03835485359572578
2022-03-16,-0.03280422125415361
2022-03-17,-0.006029356896631697
2022-03-18,0.005760532761712089
2022-03-21,0.002488705697515395
2022-03-22,0.0027547067371052614
2022-03-23,0.009917621848339386
2022-03-24,0.006273335413702972
2022-03-25,0.0014927555355501426
2022-03-28,-0.0003771088975186264
2022-03-29,0.0039975201770625045
2022-03-30,0.010579510106222196
2022-03-31,0.016200556943877842
2022-04-01,0.010754487193284219
2022-04-06,0.011666619316568361
2022-04-07,0.005647677021305596
2022-04-08,0.004824911603271861
2022-04-11,-0.001545798884247238
2022-04-12,0.007701514468770417
2022-04-13,0.0038638642819910987
2022-04-14,0.005065057477966255
2022-04-15,0.001921646738027194
2022-04-18,0.003165047353252501
2022-04-19,-0.011900524359263281
2022-04-20,-0.007832197079184394
2022-04-21,-0.008960478378984862
2022-04-22,-0.024068947647416267
2022-04-25,-0.01887219525856771
2022-04-26,0.008895054083689416
2022-04-27,0.009888341162585962
2022-04-28,0.015344037763490704
2022-04-29,0.019073998884304194
2022-05-05,0.017407968783976983
2022-05-06,-0.0010724419706655587
2022-05-09,-0.004534992549394146
2022-05-10,-0.01277245452890292
2022-05-11,-0.005239202526384514
2022-05-12,-5.633386889757931e-05
2022-05-13,0.00016934018106203041
2022-05-16,0.005363844057448667
2022-05-17,0.011371831202670987
2022-05-18,0.006985486322485167
2022-05-19,0.00452211466464569
2022-05-20,0.00807070777117127
2022-05-23,0.00475478678143107
2022-05-24,-0.009215539941381017
2022-05-25,-0.004096457159888239
2022-05-26,-0.0029688676320945608
2022-05-27,0.006128301623554856
2022-05-30,0.005662171366236424
2022-05-31,0.00022484295016838435
2022-06-01,-0.002015670031668155
2022-06-02,-0.004668217959623102
2022-06-06,0.0013173753062005692
2022-06-07,0.0003210078436033017
2022-06-08,0.003909810186051164
2022-06-09,0.01257919908058441
2022-06-10,0.01032306880035948
2022-06-13,-0.00342281069012991
2022-06-14,-0.007453339099606384
2022-06-15,0.002019630001505288
2022-06-16,0.007936360549635797
2022-06-17,0.006982871113135041
2022-06-20,0.001391750688145555
2022-06-21,0.008653188177415661
2022-06-22,0.00030316366191949357
2022-06-23,-0.00428753979076903
2022-06-24,-0.0026335440847584084
2022-06-27,-0.0015823966326024667
2022-06-28,0.0010577270290013123
2022-06-29,0.013586674793567953
2022-06-30,0.01683051094978771
2022-07-01,0.009335909119131909
2022-07-04,0.006549412766670058
2022-07-05,-0.0011114117131664353
2022-07-06,-0.001094064679671939
2022-07-07,0.004508112575512077
2022-07-08,0.016852746611935393
2022-07-11,0.007162092805592267
2022-07-12,0.0038265488036343257
2022-07-13,-0.005096793599736479
2022-07-14,-0.016789824785767272
2022-07-15,-0.021761796639291182
2022-07-18,-0.013754074816833693
2022-07-19,-0.00673835551602748
2022-07-20,0.0008765458122220252
2022-07-21,-0.0005577585906254005
2022-07-22,0.0020488070725794717
2022-07-25,0.011673768648709762
2022-07-26,0.022538639957107816
2022-07-27,0.011084051330397207
2022-07-28,0.007999140212593073
2022-07-29,-0.0007108173299219117
2022-08-01,-0.0034041385103869034
2022-08-02,-0.0009892464588280477
2022-08-03,0.0056186871599952105
2022-08-04,0.004297787958885125
2022-08-05,0.0033423516414929806
2022-08-08,0.006609344449476705
2022-08-09,0.0021988151734922984
2022-08-10,-0.005454639813000175
2022-08-11,0.012235872127989733
2022-08-12,0.01230346619288846
2022-08-15,0.004532965876246833
2022-08-16,0.004288832005827353
2022-08-17,-0.00013304426939856825
2022-08-18,-0.019106369373668775
2022-08-19,-0.017146511407288862
2022-08-22,-0.022971578036326722
2022-08-23,-0.030866945489188457
2022-08-24,-0.04062972894257793
2022-08-25,-0.02126643619362018
2022-08-26,-0.01237469818282827
2022-08-29,-0.008514350417896967
2022-08-30,0.0014055749368112897
2022-08-31,0.025177704216753312
2022-09-01,0.016977232064088653
2022-09-02,0.007494017405903195
2022-09-05,0.0055225056745348226
2022-09-06,0.00028889605510044837
2022-09-07,-0.019174409848095205
2022-09-08,-0.01518790477358219
2022-09-09,0.00097912299724804
2022-09-13,0.005653994665394679
2022-09-14,0.010060052994371578
2022-09-15,0.02011133190963765
2022-09-16,0.022862035937698068
2022-09-19,0.013862605600720631
2022-09-20,-0.00010598909991748652
2022-09-21,-0.001153453168351467
2022-09-22,-0.0037442015265482624
2022-09-23,-0.007698889404402427
2022-09-26,-0.0016723983292740198
2022-09-27,0.01797181081934622
2022-09-28,0.01682530350839073
2022-09-29,0.011549928174104924
2022-09-30,0.007102637673931886
2022-10-10,0.00289347722588925
2022-10-11,-0.009750397938728235
2022-10-12,-0.005773653373145421
2022-10-13,-0.005134328518862405
2022-10-14,0.00040347520246625766
2022-10-17,0.017754726649564536
2022-10-18,0.01830507543114692
2022-10-19,0.012267385850731265
2022-10-20,0.0021492196932719927
2022-10-21,0.013882231556138339
2022-10-24,-0.002175359342650309
2022-10-25,-0.013461527263470472
2022-10-26,-0.012134533130273375
2022-10-27,0.0025231153485769688
2022-10-28,-0.00619225499163558
2022-10-31,-0.015675352931225364
2022-11-01,-0.009762274549599777
2022-11-02,-0.008513638565141203
2022-11-03,-0.01000036749099668
2022-11-04,-0.015114735020702407
2022-11-07,-0.014902584502236176
2022-11-08,-0.013960257125393057
2022-11-09,-0.006436777293634663
2022-11-10,-0.015221787359146033
2022-11-11,-0.007185814283639538
2022-11-14,-0.0067450851533607855
2022-11-15,-0.010364531749944924
2022-11-16,-0.008972354097702289
2022-11-17,-0.0062092732105437365
2022-11-18,-0.00960959583481728
2022-11-21,-0.004599585936290167
2022-11-22,0.0014847065644104044
2022-11-23,0.0039927323838523775
2022-11-24,-0.001517183418845991
2022-11-25,-0.001154498464645038
2022-11-28,-0.0016198750990667407
2022-11-29,-0.00464659340167942
2022-11-30,-0.004253089289205994
2022-12-01,0.005337347532218132
2022-12-02,0.01068511335964165
2022-12-05,0.0017909279649537294
2022-12-06,0.006122428795594609
2022-12-07,0.008623507729125991
2022-12-08,-0.0015051328452512494
2022-12-09,0.003351911969526734
2022-12-12,0.00474712836636405
2022-12-13,0.00016587895680034853
2022-12-14,0.0025877935914245323
2022-12-15,0.014065163040879632
2022-12-16,0.01052971999581814
2022-12-19,0.002189846032503194
2022-12-20,0.005462085744661829
2022-12-21,0.0023879549747739884
2022-12-22,-0.007989003854434101
2022-12-23,-0.006678394865565573
2022-12-26,-0.0036800318178146878
2022-12-27,-0.0036428985820739462
2022-12-28,-0.007098667890433102
2022-12-29,-0.00639013910755536
2022-12-30,-0.006341202426130701
2023-01-03,-0.005054929907584216
2023-01-04,-0.0024253294432220705
2023-01-05,-0.0016245814494583537
2023-01-06,-0.0011944084913578634
2023-01-09,-0.009431620454165538
2023-01-10,-0.007155783890738142
2023-01-11,-0.010401666807858794
2023-01-12,-0.011215221412553981
2023-01-13,-0.011484848051372787
2023-01-16,-0.008473897597836979
2023-01-17,-0.00927946227849877
2023-01-18,-0.006258470941399592
2023-01-19,-0.004732440044948301
2023-01-20,-0.006881850566799662
2023-01-30,-0.012028556040885187
2023-01-31,-0.00746622023344527
2023-02-01,-0.009695525664507123
2023-02-02,-0.006445117202093696
2023-02-03,-0.009271473545686021
2023-02-06,-0.0032978414459339947
2023-02-07,-0.006137376845435731
2023-02-08,-0.004306166198594009
2023-02-09,-0.004623427813096027
2023-02-10,-0.00221523080315824
2023-02-13,-0.004844514823452947
2023-02-14,-0.00853910616456712
2023-02-15,-0.010502027246597673
2023-02-16,-0.011284190530585811
2023-02-17,-0.006607351485267558
2023-02-20,-0.004283215521674466
2023-02-21,0.0012429569565415473
2023-02-22,0.0063461066393915855
2023-02-23,0.006110003013118112
2023-02-24,0.002895633180947021
2023-02-27,0.002351313790865263
2023-02-28,-0.003718828720582529
2023-03-01,-0.0019839506216130145
2023-03-02,-0.00280717122646427
2023-03-03,0.0020056403278285347
2023-03-06,0.011236138694688223
2023-03-07,0.013022199727046341
2023-03-08,0.004706828964965615
2023-03-09,0.006485772431401478
2023-03-10,0.01860218282062004
2023-03-13,0.010658190496637793
2023-03-14,0.004476311424807429
2023-03-15,0.005289101527038547
2023-03-16,0.011865443629943247
2023-03-17,0.003974173846973714
2023-03-20,0.0013783812154063088
2023-03-21,-0.00043164117956027113
2023-03-22,0.0008798300223671249
2023-03-23,-0.003862804726653753
2023-03-24,0.0003976180465071321
2023-03-27,0.012979411778821927
2023-03-28,0.023553747312973963
2023-03-29,0.02312077163547136
2023-03-30,0.029467310544759658
2023-03-31,0.003057645411487458
2023-04-03,-0.0074759174276503425
2023-04-04,0.0024395296621591046
2023-04-06,-0.009947680040637657
2023-04-07,-0.012784808841489111
2023-04-10,-0.0033277312064557635
2023-04-11,-0.00895065004480426
2023-04-12,-0.02083156662128795
2023-04-13,0.010103367164423655
2023-04-14,-0.0057089898106219734
2023-04-17,0.010670462851957042
2023-04-18,0.01641288819572794
2023-04-19,-0.0026518776125831547
2023-04-20,-0.030614173583298748
2023-04-21,-0.00471329587314555
2023-04-24,-0.010561054800615342
2023-04-25,-0.01861035405138896
2023-04-26,0.001423277203441771
2023-04-27,0.0069728177251351334
2023-04-28,-0.006953726951505673
2023-05-04,-0.008748471434609956
2023-05-05,-0.009530512409843865
2023-05-08,-0.021401102531687505
2023-05-09,-0.03196295101523372
2023-05-10,-0.020867632967370247
2023-05-11,-0.009827587316015591
2023-05-12,-0.007210971064386496
2023-05-15,-0.01167141137762258
2023-05-16,-0.004462391771769827
2023-05-17,-0.005032096226520755
2023-05-18,-0.011463277712408931
2023-05-19,0.000268140005196732
2023-05-22,0.013641355795912167
2023-05-23,0.022746312845625463
2023-05-24,0.028436698718855066
2023-05-25,0.026028436862308026
2023-05-26,0.012501481346101222
2023-05-29,0.010725983390694197
2023-05-30,0.004592559079301816
2023-05-31,-0.0013824791375245463
2023-06-01,-0.0059907144228439424
2023-06-02,0.01149545471330443
2023-06-05,0.003877567968619282
2023-06-06,0.008139732331938591
2023-06-07,0.007508322006861258
2023-06-08,0.0016324073095570525
2023-06-09,0.0006553021439841891
2023-06-12,0.007976694193466173
2023-06-13,0.01012683080708881
2023-06-14,0.00024407866167285193
2023-06-15,0.0021410513456972917
2023-06-16,-0.005105520529519167
2023-06-19,-0.020716244648801667
2023-06-20,-0.024897550075330354
2023-06-21,-0.01959860200669291
2023-06-26,-0.017388914739524454
2023-06-27,-0.010854412892407343
2023-06-28,-0.005206519762305501
2023-06-29,-0.005006858564441828
2023-06-30,-0.0037644576437476747
2023-07-03,-0.0007496340447690174
2023-07-04,-0.0026066490842200207
2023-07-05,-0.009053315720349744
2023-07-06,-0.015269019959296179
2023-07-07,-0.006428882473469323
2023-07-10,-0.0004924057357290918
2023-07-11,-0.0065658225674504
2023-07-12,0.0034269747959885044
2023-07-13,-0.006242256239031076
2023-07-14,-0.015088914553721265
2023-07-17,-0.015208118076098702
2023-07-18,-0.011447646018984963
2023-07-19,-0.017828810639155944
2023-07-20,-0.012872417437123595
2023-07-21,-0.011786720269832102
2023-07-24,-0.010445713534174235
2023-07-25,-0.0038583380327171235
2023-07-26,0.005069645880845436
2023-07-27,0.004089694902007491
2023-07-28,0.00930101930649039
2023-07-31,0.008752383002725843
2023-08-01,0.004541446638201486
2023-08-02,0.0017282824936641185
2023-08-03,0.0024883056716092054
2023-08-04,-0.00097891591034319
2023-08-07,-0.0013972161184491287
2023-08-08,0.004723325800241124
2023-08-09,0.007876861404881787
2023-08-10,0.007003093369719597
2023-08-11,0.005528891760398474
2023-08-14,0.0050126439202531105
2023-08-15,0.004207627430263022
2023-08-16,0.005577994384231746
2023-08-17,0.005989794570663242
2023-08-18,0.0033326172282765604
2023-08-21,0.006515768304521203
2023-08-22,-0.006383101221516869
2023-08-23,-0.003849277031872673
2023-08-24,-0.0002471714641457644
2023-08-25,0.0048341571704082
2023-08-28,1.354974084241678e-05
2023-08-29,-0.0011135615342361908
2023-08-30,-4.96511176861326e-05
2023-08-31,-0.0011407047419242046
2023-09-01,0.001591179779487627
2023-09-04,0.0038655199897390767
2023-09-05,0.0033298099502734792
2023-09-06,-0.005028552278988798
2023-09-07,-0.004974402641081152
2023-09-08,-0.010581387667559203
2023-09-11,-0.011936122083287131
2023-09-12,-0.007624726881663858
2023-09-13,-0.006460939022249323
2023-09-14,0.0017967084153227633
2023-09-15,0.0056417260789603085
2023-09-18,0.00446077916681486
2023-09-19,0.008583163965160597
2023-09-20,0.0049101377995647375
2023-09-21,0.005770144883103788
2023-09-22,0.004436603327812536
2023-09-25,0.009486325880494379
2023-09-26,0.006969572680650463
2023-09-27,0.005465490958117545
2023-09-28,0.006461003517821871
2023-10-09,0.004635541740891293
2023-10-10,0.002541056101268817
2023-10-11,0.003688926368520017
2023-10-12,0.00946364615353739
2023-10-13,0.006186711983751633
2023-10-16,0.005914044685630011
2023-10-17,0.00601558552920315
2023-10-18,0.0033494194468593474
2023-10-19,-0.0027462532981750096
2023-10-20,-0.0047604789541532775
2023-10-23,-0.0075240039200358405
2023-10-24,-0.006812295432125935
2023-10-25,-0.005680478825582945
2023-10-26,-0.005388646463404716
2023-10-27,0.0023178661997544526
2023-10-30,0.002666741956478834
2023-10-31,0.004357808815586884
2023-11-01,0.008573903314096324
2023-11-02,0.0067860155432462495
2023-11-03,0.005849220404385172
2023-11-06,0.007251506536868135
2023-11-07,0.004214473988093084
2023-11-08,-0.0015869556740227457
2023-11-09,-0.0010991137052632559
2023-11-10,0.0015456972900159927
2023-11-13,-0.0019155419682007088
2023-11-14,-0.007129158162271859
2023-11-15,-0.007528097755188029
2023-11-16,-0.005440028346589924
2023-11-17,-0.01246259643490587
2023-11-20,-0.008001316130444476
2023-11-21,-0.0029513689170619136
2023-11-22,-0.0012986896432197574
2023-11-23,-0.004401553760725669
2023-11-24,0.01043146313417859
2023-11-27,0.005788033488819922
2023-11-28,0.005646859729915479
2023-11-29,0.001473094155050668
2023-11-30,0.007255828517801153
2023-12-01,0.0049326984196145385
2023-12-04,0.004721025812353728
2023-12-05,0.0046584985299452635
2023-12-06,0.006558022563809471
2023-12-07,0.005129749765824521
2023-12-08,0.003413942035524806
2023-12-11,-0.003426734685493975
2023-12-12,0.0021412624352490812
2023-12-13,-0.0030862449107548658
2023-12-14,-0.005536271557525762
2023-12-15,-0.009799379011446997
2023-12-18,-0.010227124322744254
2023-12-19,-0.014015978668215117
2023-12-20,-0.009500327082286103
2023-12-21,-0.012328618375869866
2023-12-22,-0.0050964241255078285
2023-12-25,-0.005531849486602736
2023-12-26,-0.006303618191746749
2023-12-27,-0.004504127814104392
2023-12-28,-0.003944016968750942
2023-12-29,-0.008748563923903545
2024-01-02,-0.006680668354732421
2024-01-03,-0.008939110704822471
2024-01-04,-0.0023465235835467193
2024-01-05,-0.0029439798260893543
2024-01-08,-0.0028980425160306904
2024-01-09,-0.0022984230794002186
2024-01-10,0.004704254921566604
2024-01-11,0.0006835683625326626
2024-01-12,0.009963809321998073
2024-01-15,0.006726100546317559
2024-01-16,0.0019948624438144123
2024-01-17,-0.009319287439010612
2024-01-18,-0.015652417680361637
2024-01-19,-0.017281128505925423
2024-01-22,-0.01528712332273804
2024-01-23,-0.004356828197798438
2024-01-24,6.228316929048072e-05
2024-01-25,0.0031377073381212706
2024-01-26,0.0008872878198907391
2024-01-29,-0.016609304734371354
2024-01-30,-0.02582823619729014
2024-01-31,-0.021483408145540905
2024-02-01,-0.007774435662408916
2024-02-02,-0.004865077617179636
2024-02-05,0.019655587144473227
2024-02-06,0.016126401577851654
2024-02-07,0.011688988755416421
2024-02-08,-0.0013914956633215014
2024-02-19,0.0020323289524659706
2024-02-20,0.009977255128942923
2024-02-21,0.004493180718937729
2024-02-22,0.009276735780693837
2024-02-23,0.012991608937653387
2024-02-26,0.009904317920212617
2024-02-27,0.0041836435698894255
2024-02-28,0.018282363893483013
2024-02-29,0.004279194938714656
2024-03-01,-0.0010842818589570091
2024-03-04,-0.006264456330911101
2024-03-05,-0.019534097141775984
2024-03-06,-0.010876788655280117
2024-03-07,-0.011671387326926356
2024-03-08,-0.010589810360884652
2024-03-11,-0.0015567936534774448
2024-03-12,0.010059016144869074
2024-03-13,0.00968966700506681
2024-03-14,0.007494926156484239
2024-03-15,0.005762230163555024
2024-03-18,-0.006613478300328601
2024-03-19,-0.012580800856871141
2024-03-20,-0.015501734744971074
2024-03-21,-0.007310358600427655
2024-03-22,-0.008703044726221132
2024-03-25,-0.004412979363191811
2024-03-26,0.0007488794946369157
2024-03-27,0.006169466148946215
2024-03-28,-0.002511678862840258
2024-03-29,-0.0022466676383177783
2024-04-01,-0.010819169859070103
2024-04-02,-0.007218583173489057
2024-04-03,0.0033794379137862002
2024-04-08,0.0011342454894258517
2024-04-09,-0.0038477735676649416
2024-04-10,0.012460656317858499
2024-04-11,0.007445931004469244
2024-04-12,0.003089257001293211
2024-04-15,-0.005913943789525845
2024-04-16,-0.014045882872612568
2024-04-17,-0.022814973556996597
2024-04-18,-0.023688380778676764
2024-04-19,-0.03550482567819663
2024-04-22,-0.02385874931487976
2024-04-23,-0.01124436075279344
2024-04-24,-0.026596918390837925
2024-04-25,-0.02140721809673652
2024-04-26,-0.010948053187535079
2024-04-29,-0.008943256695818448
2024-04-30,-0.008713919797652231
2024-05-06,0.0002840305642526383
2024-05-07,-0.004532226225854861
2024-05-08,0.0005399994902423064
2024-05-09,0.0006443157110788775
2024-05-10,0.00466518726225601
2024-05-13,0.010259211927855894
2024-05-14,0.007155340218559107
2024-05-15,0.0007355799624557298
2024-05-16,-8.604791438148428e-05
2024-05-17,-0.003720336793189477
2024-05-20,-0.002606467352016962
2024-05-21,-0.0005028976106078963
2024-05-22,0.002935480204295113
2024-05-23,0.0024155000773425066
2024-05-24,0.0034506020982280057
2024-05-27,-0.0030505200156822534
2024-05-28,-0.007797651925221949
2024-05-29,-0.011375273843279615
2024-05-30,-0.0019471401420858797
2024-05-31,0.003265949967591556
2024-06-03,0.0011420786461328082
2024-06-04,0.007169248465258049
2024-06-05,0.008519127693111517
2024-06-06,0.010027723930487927
2024-06-07,0.0022544947605391153
2024-06-11,0.008463705094057857
2024-06-12,0.005862818766406225
2024-06-13,0.009405423589925603
2024-06-14,0.008192045539243532
2024-06-17,0.008397261058153655
2024-06-18,0.003715907170355876
2024-06-19,0.001378030738740682
2024-06-20,0.0011428016591758863
2024-06-21,0.006225200750051578
2024-06-24,0.012494380164077574
2024-06-25,0.015505434669120868
2024-06-26,0.007823094755851356
2024-06-27,0.005084950796560304
2024-06-28,0.0005647637781680702
2024-07-01,0.002303677282742736
2024-07-02,0.006346536782973343
2024-07-03,0.009929667882837721
2024-07-04,0.004348342475158197
2024-07-05,-0.006319502404637857
2024-07-08,-0.0068741615734319965
2024-07-09,-0.012479048196517266
2024-07-10,-0.01871600710684925
2024-07-11,-0.017682102322566194
2024-07-12,-0.007496787924024215
2024-07-15,-0.01916428177141454
2024-07-16,-0.014443694998797297
2024-07-17,-0.0017167771295926587
2024-07-18,-0.005283816176732466
2024-07-19,-0.0010974736308247898
2024-07-22,0.012156957084945935
2024-07-23,0.007182929498498476
2024-07-24,-0.002947680075627346
2024-07-25,0.01022624147367509
2024-07-26,0.0017825532201516522
2024-07-29,-0.023455904539576133
2024-07-30,-0.022901464698358735
2024-07-31,-0.013422781028668743
2024-08-01,-0.02221177785183086
2024-08-02,-0.011455948225159534
2024-08-05,0.010362159299719285
2024-08-06,0.011680000002573694
2024-08-07,0.01684817798711853
2024-08-08,0.019535619052421068
2024-08-09,0.014849937541897914
2024-08-12,0.010663547220011982
2024-08-13,0.013863409899064063
2024-08-14,0.007969693356103617
2024-08-15,0.009307077871498988
2024-08-16,0.00368005404625733
2024-08-19,0.006126072867588126
2024-08-20,0.004094144253433926
2024-08-21,0.005544717348436924
2024-08-22,-0.003409448847909902
2024-08-23,-0.009272182101438464
2024-08-26,-9.93529761056421e-05
2024-08-27,-0.00795975386654288
2024-08-28,-0.018590901918601174
2024-08-29,-0.010895747819987056
2024-08-30,-0.0004926251384713143
2024-09-02,-0.006534336713314546
2024-09-03,-0.003880969769276408
2024-09-04,-0.001909926438328026
2024-09-05,0.001530763280129091
2024-09-06,0.00039488177767254065
2024-09-09,0.0022537136566212015
2024-09-10,-0.0011684438209833255
2024-09-11,0.006552084370926847
2024-09-12,0.006499140628834154
2024-09-13,-0.0007050794478049849
2024-09-18,-0.005529609320085872
2024-09-19,-0.00924710927276673
2024-09-20,-0.02783567066794365
2024-09-23,-0.06264389762962927
2024-09-24,-0.1021324195946148
2024-09-25,-0.07533794292129803
2024-09-26,-0.05568258779365785
2024-09-27,-0.004631298746544617
2024-09-30,0.0022902954863186584
2024-10-08,-0.015995192736785208
2024-10-09,0.006244857432231597
2024-10-10,0.007484248794371075
2024-10-11,0.013393414194247215
2024-10-14,0.00920420649399842
2024-10-15,0.011024826193002702
2024-10-16,0.0027175225764346847
2024-10-17,0.00858584013714906
2024-10-18,-0.005985317726343533
2024-10-21,-0.012400655985552973
2024-10-22,-0.010442647505954535
2024-10-23,-0.00333830226739997
2024-10-24,0.00020454763938058604
2024-10-25,-0.006218961161354565
2024-10-28,0.003608528038926205
2024-10-29,0.019715136471241096
2024-10-30,0.015083448820879631
2024-10-31,0.009588734807785541
2024-11-01,0.023959112803231555
2024-11-04,0.03758658138424194
2024-11-05,0.014887342742413526
2024-11-06,0.025416843805296203
2024-11-07,0.009857640931194948
2024-11-08,-0.004137532434485974
2024-11-11,-0.031228149363032816
2024-11-12,-0.016395591826549632
2024-11-13,-0.024415509347890635
2024-11-14,-0.014421728678971983
2024-11-15,-0.0053124787545484765
2024-11-18,0.00032359962141720496
2024-11-19,-0.015108551569232985
2024-11-20,-0.005069407806182759
2024-11-21,-0.011665500956362639
2024-11-22,0.00508439581141574
2024-11-25,0.011696849850517582
2024-11-26,0.008714163898753624
2024-11-27,-0.0047519421785003815
2024-11-28,0.004301301639326648
2024-11-29,-0.004155173816736453
2024-12-02,-0.010948355759520549
2024-12-03,-0.0023152912972738623
2024-12-04,0.005970850818997191
2024-12-05,-0.007493661016970434
2024-12-06,-0.003886303936507001
2024-12-09,-4.041059050816087e-05
2024-12-10,-0.0022755053257190218
2024-12-11,-0.0006916599326769659
2024-12-12,0.007756399348024471
2024-12-13,0.012613951318582617
2024-12-16,0.006479427613593889
2024-12-17,0.007549955551499218
2024-12-18,0.00271473054905651
2024-12-19,0.006237793357617273
2024-12-20,-0.0019530743961168238
2024-12-23,0.002629048080809649
2024-12-24,-0.002418096662097382
2024-12-25,-0.005833357248453852
2024-12-26,-0.02091360296910281
2024-12-27,-0.016062310051693236
2024-12-30,5.562252846721266e-05
2024-12-31,0.006761102819028236
2025-01-02,0.005956720467017864
2025-01-03,0.013655005937246795
2025-01-06,0.01833054264282739
2025-01-07,0.00509858169766742
2025-01-08,0.0029980879776963475
2025-01-09,0.0006590558199601731
2025-01-10,0.0043114029221752
2025-01-13,0.0013691809643635866
2025-01-14,0.008476102222927372
2025-01-15,0.01420387338260095
2025-01-16,0.014098945503458384
2025-01-17,0.012734195453841017
2025-01-20,-0.004380487905248647
2025-01-21,-0.01471348062912339
2025-01-22,-0.013206283382115385
2025-01-23,-0.013362115202153444
2025-01-24,-0.0024959422864642283
2025-01-27,0.012791126140899653
2025-02-05,0.011469117432067029
2025-02-06,-0.0005931556846096447
2025-02-07,-0.00419023451342283
2025-02-10,-0.002964265244588187
2025-02-11,-0.0026496510659247538
2025-02-12,-0.002219119673071363
2025-02-13,0.004152234927677464
2025-02-14,0.018802741532002232
2025-02-17,0.015131290661841112
2025-02-18,0.01866265935222094
2025-02-19,0.014727472440541445
2025-02-20,0.01001605652631985
2025-02-21,-0.03003630420001767
2025-02-24,-0.03417461435270147
2025-02-25,-0.026824463324657873
2025-02-26,-0.02343243854221418
2025-02-27,0.0013311450099453104
2025-02-28,0.021994175887536084
2025-03-03,0.02026731130393055
2025-03-04,0.005484937550233793
2025-03-05,-0.0015234639794308056
2025-03-06,-0.026545952620695715
2025-03-07,-0.016140540823222242
2025-03-10,-0.012815027568353525
2025-03-11,0.0014347219487209628
2025-03-12,-0.0059355932142464325
2025-03-13,0.0019253828099765839
2025-03-14,-0.015303084729511536
2025-03-17,-0.013658906560751253
2025-03-18,-0.03485012508720161
2025-03-19,-0.028778548113647676
2025-03-20,-0.020915971026915635
2025-03-21,-0.009353914309301034
2025-03-24,-0.008830611115662584
2025-03-25,-0.0003727029991167502
2025-03-26,0.0013300286988684722
2025-03-27,-0.008302638112556012
2025-03-28,-0.021958516152157978
2025-03-31,-0.04881891244797771
2025-04-01,-0.041581124039433606
2025-04-02,-0.030431228074307114
2025-04-03,-0.008605582744511682
2025-04-07,0.01842891623003068
2025-04-08,0.03245413220478556
2025-04-09,0.019616095656674225
2025-04-10,0.00823891624961496
2025-04-11,-0.00228080474287046
2025-04-14,-0.0028260737011075662
2025-04-15,0.0013315448881570172
2025-04-16,0.012681939625450302
2025-04-17,0.007736978927018143
2025-04-18,0.0104857498422677
2025-04-21,0.00344019451232512
2025-04-22,0.006547025898222725
2025-04-23,0.005613256464617443
2025-04-24,0.016038971963947733
2025-04-25,0.009036419939697055
2025-04-28,0.009038001214404907
2025-04-29,0.0020712873430186185
2025-04-30,-0.007574574077425171
2025-05-06,-0.015146819451530834
2025-05-07,-0.00769484811424659
2025-05-08,-0.012108233156467373
2025-05-09,-0.005853910199471677
2025-05-12,-0.00722479256349815
2025-05-13,0.0016590639454932888
2025-05-14,-0.0007198627834568072
2025-05-15,0.0055307857766668765
2025-05-16,-0.0007537175201076382
2025-05-19,0.0005811416863829451
2025-05-20,-0.001984123264585488
2025-05-21,-0.00016306865418750857
2025-05-22,0.0055746876147391
2025-05-23,-4.080456392740713e-05
2025-05-26,0.0037842928551655676
2025-05-27,0.005786045256568643
2025-05-28,0.01085792496176311
2025-05-29,0.005436111681684846
2025-05-30,0.012832864605420406
2025-06-03,0.009228851591981712
2025-06-04,0.005729246835676017
2025-06-05,0.009689670153197716
2025-06-06,0.005914169396859046
2025-06-09,0.005246590217565713
2025-06-10,-0.0015288775991177121
2025-06-11,-0.0005266420957602417
2025-06-12,-0.008421550940539186
2025-06-13,-0.006977971346000542
2025-06-16,-0.004943732514381583
2025-06-17,0.004799015216369416
2025-06-18,0.007953565342878851
2025-06-19,0.006602734212982363
2025-06-20,0.008693616219438378
2025-06-23,0.005950247676054846
2025-06-24,0.004864201391274012
2025-06-25,-0.006550306174481288
2025-06-26,-0.001209764258609516
2025-06-27,-0.00017969559556717946
2025-06-30,-0.005090269108692331
2025-07-01,-0.004850114573809156
2025-07-02,0.001750845100309019
2025-07-03,-0.002241267575492192
2025-07-04,0.0014483238531706206
2025-07-07,0.002210877505795121
2025-07-08,0.007024146326353993
2025-07-09,0.008394163003319598
2025-07-10,0.01689313791068108
2025-07-11,0.010255129614919088
2025-07-14,0.006225482929042726
2025-07-15,-0.006367579844064709
2025-07-16,-0.0027529529135069744
2025-07-17,-0.011530860506655909
2025-07-18,-0.004684150850755457
2025-07-21,0.005961132002342676
2025-07-22,0.014379706195673362
2025-07-23,0.005321978955032541
2025-07-24,0.009519655919979404
2025-07-25,0.005886174439052903
2025-07-28,0.0027710219618361075
2025-07-29,0.001919980361700652
2025-07-30,0.006462462466743442
2025-07-31,0.0017022691029675609
2025-08-01,-0.000440513274924826
2025-08-04,-0.00047948532256211415
2025-08-05,0.000660270848253491
2025-08-06,0.003970530856920326
2025-08-07,0.005231032375833241
2025-08-08,0.014527911133482077
2025-08-11,0.026633937523839135
2025-08-12,0.022326690441622322
2025-08-13,0.01577712635136091
2025-08-14,0.01325667184457048
2025-08-15,0.02690761106713364
2025-08-18,0.01973122501237052
2025-08-19,0.016060254940342647
2025-08-20,0.024053499484151933
2025-08-21,0.05478473668540708
2025-08-22,0.03010223834904082
2025-08-25,0.0380526998642899
2025-08-26,0.025985917739616372
2025-08-27,0.01930990111573386
2025-08-28,-0.042979074610217174
2025-08-29,-0.021720678225325713
2025-09-01,-0.04052232656060474
2025-09-02,-0.028461918269113356
2025-09-03,-0.023881088252710694
2025-09-04,0.03917143109691426
2025-09-05,0.016549850096655376
2025-09-08,0.024881909777212365
2025-09-09,0.042327016638257324
2025-09-10,0.03726851782624094
2025-09-11,0.017232023052834656
2025-09-12,0.0042634972589861335
2025-09-15,0.026560813890948165
2025-09-16,0.020438283420074616
2025-09-17,0.02759502812796886
2025-09-18,0.03152536933079792
2025-09-19,0.02732493829060137
2025-09-22,0.016306385082906313
2025-09-23,0.026063025345767092
2025-09-24,0.021122026915828276
2025-09-25,-0.020281860945702418
2025-09-26,-0.001179643878008188
2025-09-29,-0.03720470383899415
2025-09-30,-0.038852662824317846
2025-10-09,-0.04529471025767654
2025-10-10,-0.030070643707079743
2025-10-13,-0.03768386001275408
2025-10-14,0.00411340740913038
2025-10-15,-0.006758740958338446
2025-10-16,-0.010072707767777637
2025-10-17,0.03223695616567581
2025-10-20,0.04190696428288518
2025-10-21,0.023319125701789296
2025-10-22,0.03665891008465795
2025-10-23,0.03717534302713003
2025-10-24,-0.002951148984468595
2025-10-27,-0.01720013710752814
2025-10-28,-0.024842351486924263
2025-10-29,-0.035391912365647184
2025-10-30,-0.018005942116931267
2025-10-31,-0.010250375142076605
2025-11-03,-0.017924075604598463
2025-11-04,-0.01708037402038032
2025-11-05,-0.01926045375417425
2025-11-06,-0.021579357835045707
2025-11-07,-0.0266583130877631
2025-11-10,-0.0113090290293681
2025-11-11,-0.0037622617381207826
2025-11-12,0.0004211448930026389
2025-11-13,-0.008142400732015252
2025-11-14,-0.013933149970817009
2025-11-17,-0.01764539062477357
2025-11-18,-0.006818474599289479
2025-11-19,0.0028557738374965173
2025-11-20,0.004079783732352824
2025-11-21,0.025298861625771135
2025-11-24,0.02957242365722091
2025-11-25,0.016149595569070578
2025-11-26,0.003252625291364164
2025-11-27,0.010145162405908438
2025-11-28,0.006553126216196278
2025-12-01,0.01789472306054148
2025-12-02,0.027440232412915266
2025-12-03,0.027950868262898113
2025-12-04,0.01606492880741344
2025-12-05,0.020176530031122263
2025-12-08,-0.002319948270026644
2025-12-09,-0.014873246854886476
2025-12-10,-0.0014066310282980082
2025-12-11,-0.004812459385847035
2025-12-12,-0.01303087336213727
2025-12-15,0.011134822953116555
2025-12-16,0.022139030076385575
2025-12-17,0.01517416224461059
2025-12-18,0.023681638292768963
2025-12-19,0.026659095782477348
2025-12-22,0.012458932283301784
2025-12-23,0.014892532072460654
2025-12-24,0.006522711592302203
2025-12-25,0.017146058491135686
2025-12-26,0.02125308531665367
2025-12-29,0.027619959921751817
2025-12-30,0.02525995909096862
2025-12-31,0.03154122110385193
2026-01-05,0.03528565200331673
2026-01-06,0.01257673199050528
2026-01-07,0.014158595156679202
2026-01-08,0.013217970798579741
2026-01-09,0.018696996814788765
2026-01-12,-0.0017266352530759376
2026-01-13,0.0010869792317178563
2026-01-14,0.0066026818724064336
2026-01-15,0.008807722301229521
2026-01-16,0.012695507426685241
2026-01-19,0.004665584618891439
2026-01-20,0.030393724636816385
2026-01-21,0.014858454788788058
2026-01-22,-0.00126041754337166
2026-01-23,-0.013484167656661581
2026-01-26,-0.022130767849293447
2026-01-27,-0.018792615402100084
2026-01-28,-0.035692484972038675
2026-01-29,-0.03362863569587474
2026-01-30,-0.02916883396598957
2026-02-02,0.0026396769449349156
2026-02-03,-0.015012510017920113
2026-02-04,-0.006180843722475206
2026-02-05,0.02630785592367342
2026-02-06,0.026675371351406164
2026-02-09,0.02238973965961008
2026-02-10,0.027218715814273885
2026-02-11,0.040317205204215056
2026-02-12,0.026266778913068417
2026-02-13,0.039968805003977786
2026-02-24,0.011938649708673709
2026-02-25,0.006250665483434708
2026-02-26,-0.0012727162203431328
2026-02-27,-0.016534903091369776
2026-03-02,-0.024007432539846895
2026-03-03,-0.003945781728118818
2026-03-04,-0.01207313969646131
2026-03-05,-0.0196898409452184
2026-03-06,-0.017011102132997828
2026-03-09,-0.020850594849149737
2026-03-10,-0.03558661637081842
2026-03-11,-0.021600280144227935
2026-03-12,-0.020389995221280592
2026-03-13,-0.013697996823242811
2026-03-16,-0.009566009400002802
2026-03-17,0.008175529448009554
2026-03-18,0.0022755538792189785
2026-03-19,0.0019238480339818093
2026-03-20,0.001726755214264247
2026-03-23,0.007520356970922577
2026-03-24,-0.005439169488388024
2026-03-25,-0.0071206890061502985
2026-03-26,-0.014643199571241747
2026-03-27,-0.0080490825894047
2026-03-30,-0.008340922253344003
2026-03-31,0.024643394968268433
2026-04-01,0.022924925277983902
2026-04-02,0.04339320422666752
2026-04-03,0.04407140063772719
2026-04-07,0.04810311161630095
2026-04-08,0.018483993725585228
2026-04-09,0.027835985292818215
2026-04-10,0.028735262876444734
2026-04-13,0.027071797982991815
2026-04-14,0.012980162307465423
2026-04-15,0.03741324564281686
2026-04-16,0.018051280381211506
2026-04-17,0.005978821175319791
2026-04-20,0.016557279667493704
2026-04-21,0.01112326950298012
2026-04-22,-0.0032718095668191668
2026-04-23,0.016802236759488838
2026-04-24,0.043958668196161094
2026-04-27,0.04243190444670507
2026-04-28,0.05186693668612864
2026-04-29,0.06896827745093327
2026-04-30,0.05629663537506982
2026-05-06,0.05154769054734968
2026-05-07,0.02774137322255813
2026-05-08,0.031116561483579754
2026-05-11,0.021389101970330195
2026-05-12,0.02338626329950571
2026-05-13,0.017110971558292137
2026-05-14,0.010812067265491129
2026-05-15,0.03755463092900607
2026-05-18,0.0542036510904458
2026-05-19,0.0436265537162088
2026-05-20,0.020742198227626726
2026-05-21,0.05462709414298988
2026-05-22,-0.004925861687244494
2026-05-25,-0.05849396506143027
2026-05-26,-0.03587061370440949
2026-05-27,-0.007732881620992317
2026-05-28,-0.014649914116588773
2026-05-29,0.0004093974355774913
2026-06-01,0.010857136193961201
2026-06-02,0.02556519081903536
2026-06-03,-0.010767921624966297
2026-06-04,-0.019511536769810503
2026-06-05,-0.00881585982392846
2026-06-08,0.052146146080647625
2026-06-09,0.04060731816955329
2026-06-10,0.08466810186729569
2026-06-11,0.11498940759105608
2026-06-12,0.1319362809511103
2026-06-15,0.07075629939744353
2026-06-16,0.06979804949816021
2026-06-17,0.071771335135701
