date,long_short
2015-02-25,-0.10132495683892184
2015-02-26,0.07704133817738823
2015-02-27,0.10079702895501277
2015-03-02,0.112403130131774
2015-03-03,0.10047261390926676
2015-03-04,0.09093108902280644
2015-03-05,0.12282581616312038
2015-03-06,0.16836360273117157
2015-03-09,0.13412931962477317
2015-03-10,0.11973499057947093
2015-03-11,0.0666006624260243
2015-03-12,0.06700127861202071
2015-03-13,0.1005359893029607
2015-03-16,0.0898124609071809
2015-03-17,0.0906003469495589
2015-03-18,0.1952272951273524
2015-03-19,0.15810316448827838
2015-03-20,0.06870247888701106
2015-03-23,0.12228518345352216
2015-03-24,0.14606963473636153
2015-03-25,0.09366613488733497
2015-03-26,0.0942093961895552
2015-03-27,0.10899346276372836
2015-03-30,0.07415761438396958
2015-03-31,0.02805600718027671
2015-04-01,0.0030206897374679964
2015-04-02,0.024477368554185794
2015-04-03,0.00618641024020122
2015-04-07,-0.006015877622443844
2015-04-08,-0.007446849767087468
2015-04-09,-0.006306714865427086
2015-04-10,0.007618781583879228
2015-04-13,8.087153545688341e-05
2015-04-14,0.009061223496340393
2015-04-15,0.007511996074067384
2015-04-16,0.01247901307723236
2015-04-17,0.021933231711561366
2015-04-20,0.029586813938831648
2015-04-21,0.03331838294891323
2015-04-22,0.03165640483313487
2015-04-23,0.029976741028184622
2015-04-24,0.03314216556838954
2015-04-27,0.028791398421099748
2015-04-28,0.02302996512832759
2015-04-29,0.018214024204587245
2015-04-30,-0.023293457785455468
2015-05-04,-0.024908683137561935
2015-05-05,-0.011145225160682212
2015-05-06,-0.02259672869547172
2015-05-07,-0.02439847674599177
2015-05-08,-0.030582081224473007
2015-05-11,-0.02236871451784382
2015-05-12,-0.027048728272290976
2015-05-13,-0.04689604036230052
2015-05-14,-0.03150918915290253
2015-05-15,-0.005543476969580685
2015-05-18,-0.0246495121271251
2015-05-19,-0.0381630117640198
2015-05-20,-0.04392655834638638
2015-05-21,-0.05963600865036778
2015-05-22,-0.06374310161786087
2015-05-25,-0.054516140159298926
2015-05-26,-0.09227396303356056
2015-05-27,-0.09388829059236267
2015-05-28,-0.10532881097827712
2015-05-29,-0.09328981715785156
2015-06-01,-0.10788092834977742
2015-06-02,-0.1153675836875862
2015-06-03,-0.11569355883002475
2015-06-04,-0.10907304188463882
2015-06-05,-0.13049045746832394
2015-06-08,-0.12791665160578572
2015-06-09,-0.09948928245948568
2015-06-10,-0.11452195618788008
2015-06-11,-0.11717962792319972
2015-06-12,-0.15798020380417674
2015-06-15,-0.1438115121604461
2015-06-16,-0.13012404242978917
2015-06-17,-0.1289671957323757
2015-06-18,-0.13229218652438066
2015-06-19,-0.1121451861324341
2015-06-23,-0.09441858471415646
2015-06-24,-0.08896264476561391
2015-06-25,-0.06658882096690155
2015-06-26,-0.03769122008142209
2015-06-29,-0.023336465382181898
2015-06-30,-0.08622486652690667
2015-07-01,-0.04589256590139179
2015-07-02,-0.022986271029972694
2015-07-03,-0.028111705067118825
2015-07-06,-0.027899875784855255
2015-07-07,-0.01501690154572316
2015-07-08,-0.012896426089885038
2015-07-09,-0.016774002787054827
2015-07-10,-0.034862601171794044
2015-07-13,-0.03867523826442974
2015-07-14,-0.06697634131905686
2015-07-15,-0.03384180282539047
2015-07-16,-0.030455723319562214
2015-07-17,-0.03752318561511646
2015-07-20,-0.04565527869916042
2015-07-21,-0.03620380370863675
2015-07-22,-0.04868409254080319
2015-07-23,-0.049422749593217505
2015-07-24,-0.03192308165530908
2015-07-27,-0.020648799914007136
2015-07-28,-0.03340069654558883
2015-07-29,-0.03123605125100963
2015-07-30,-0.024651484618926862
2015-07-31,-0.01946116374118638
2015-08-03,0.017348414476551634
2015-08-04,0.002871006347699219
2015-08-05,0.00788323155099573
2015-08-06,0.028692007735520334
2015-08-07,0.024945682604074933
2015-08-10,0.014949791136922772
2015-08-11,0.03499574748867895
2015-08-12,0.04296021012314838
2015-08-13,0.03480953623612719
2015-08-14,0.015747286337443732
2015-08-17,0.0009274246058446484
2015-08-18,0.030515289322293436
2015-08-19,0.013173909737407175
2015-08-20,0.014375045472011525
2015-08-21,0.014455610499350777
2015-08-24,0.008328114943585069
2015-08-25,0.03791679172790635
2015-08-26,0.04459478695500427
2015-08-27,0.01402849859828463
2015-08-28,0.013923046931228367
2015-08-31,0.032346398718493055
2015-09-01,0.06292284588113074
2015-09-02,0.06941903646055089
2015-09-07,0.04602426450884098
2015-09-08,0.05324026695154281
2015-09-09,0.042356805741090485
2015-09-10,0.03444485321757669
2015-09-11,0.027827753942956522
2015-09-14,0.07349608625902637
2015-09-15,0.10522954238943029
2015-09-16,0.05058904259387964
2015-09-17,0.10126106369690308
2015-09-18,0.11643146693513556
2015-09-21,0.11969915428112507
2015-09-22,0.12459642954692612
2015-09-23,0.10056483905565008
2015-09-24,0.08496179431701169
2015-09-25,0.10552141661110155
2015-09-28,0.08982111935595989
2015-09-29,0.0927103288316547
2015-09-30,0.07726700209259642
2015-10-08,0.06872554694505406
2015-10-09,0.04018552522385242
2015-10-12,0.02816754198838007
2015-10-13,0.009629577241195428
2015-10-14,0.009190118794442143
2015-10-15,0.002202622195652785
2015-10-16,-0.004305274146648948
2015-10-19,0.004080762274345916
2015-10-20,-0.007711329813231679
2015-10-21,0.018039076158861952
2015-10-22,-0.0003455656175150035
2015-10-23,0.016131302507530212
2015-10-26,0.011619366225351174
2015-10-27,0.0028694872501054125
2015-10-28,0.021558759335110145
2015-10-29,0.015118037008720275
2015-10-30,0.018112145873371566
2015-11-02,0.006159602579607348
2015-11-03,-0.005924292443201709
2015-11-04,-0.03417350730731078
2015-11-05,-0.037182304600698046
2015-11-06,-0.05322385743388858
2015-11-09,-0.04328679570833699
2015-11-10,-0.03365093945685174
2015-11-11,-0.041461705248461295
2015-11-12,-0.035926406555667395
2015-11-13,-0.041272165440536385
2015-11-16,-0.043089108022293834
2015-11-17,-0.02910499787187558
2015-11-18,-0.03401887262112829
2015-11-19,-0.030089985275631656
2015-11-20,-0.03367287072350497
2015-11-23,-0.02783137544257412
2015-11-24,-0.03626504675760783
2015-11-25,-0.05238690987442374
2015-11-26,-0.05636364925882567
2015-11-27,-0.06803168193127913
2015-11-30,-0.043564167467351075
2015-12-01,-0.0431196935571756
2015-12-02,-0.03109398754968562
2015-12-03,-0.06592004993015878
2015-12-04,-0.0626559961771269
2015-12-07,-0.01336688251204994
2015-12-08,-0.04846950422133958
2015-12-09,-0.018082130972085497
2015-12-10,-0.026891991850846023
2015-12-11,-0.023669093493333154
2015-12-14,-0.05807804434609151
2015-12-15,-0.04267748776254872
2015-12-16,-0.06377031432323031
2015-12-17,-0.057516154057568575
2015-12-18,-0.04663074560050037
2015-12-21,-0.0435388593174284
2015-12-22,-0.047234276315939086
2015-12-23,-0.03669667513896564
2015-12-24,-0.032592658291868845
2015-12-25,-0.03569455743820109
2015-12-28,-0.03442102761636044
2015-12-29,-0.02987444037635631
2015-12-30,-0.02336037280260235
2015-12-31,-0.05253475909377267
2016-01-04,-0.0124617159478344
2016-01-05,-0.027205143134149498
2016-01-06,-0.03952296820579502
2016-01-07,-0.02981061710364285
2016-01-08,-0.02693584689963871
2016-01-11,-0.010269595358041984
2016-01-12,-0.05036446442530312
2016-01-13,-0.03662085101183448
2016-01-14,-0.03388286947718065
2016-01-15,-0.03406091698645296
2016-01-18,-0.05394152484365417
2016-01-19,-0.06707560422030073
2016-01-20,-0.08586511715606639
2016-01-21,-0.08525542597378001
2016-01-22,-0.08322206196767128
2016-01-25,-0.07772682965206502
2016-01-26,-0.05734353353164063
2016-01-27,-0.04953971952028851
2016-01-28,-0.044467341587294866
2016-01-29,-0.01628176712996146
2016-02-01,-0.03174599037451931
2016-02-02,-0.040642552005188196
2016-02-03,-0.03449915535132202
2016-02-04,-0.03011846074991315
2016-02-05,-0.03217055784692152
2016-02-15,-0.027488499401176
2016-02-16,-0.031043705842552286
2016-02-17,-0.029026488642329595
2016-02-18,-0.02294365650337997
2016-02-19,-0.01476700599741918
2016-02-22,-0.012181539647585978
2016-02-23,-0.018513577021720993
2016-02-24,-0.022360813416628465
2016-02-25,-0.04332700928225186
2016-02-26,-0.020060704551305285
2016-02-29,-0.02356906358147906
2016-03-01,-0.025792577659475742
2016-03-02,-0.012011981959239963
2016-03-03,-0.012781963006145224
2016-03-04,-0.010989245323453179
2016-03-07,-0.007890545093452671
2016-03-08,0.005979644977527232
2016-03-09,0.0019025786317949447
2016-03-10,0.01682235509693008
2016-03-11,0.010231353753943441
2016-03-14,0.004412783298112323
2016-03-15,0.004290304237201526
2016-03-16,-0.0063109386759183424
2016-03-17,-0.00913050559139019
2016-03-18,-0.016207978277912993
2016-03-21,-0.026586769987736944
2016-03-22,-0.022381921843311954
2016-03-23,-0.01863967230504825
2016-03-24,-0.02383143563311865
2016-03-25,-0.021075127128593496
2016-03-28,-0.00754082947381181
2016-03-29,0.0024975399709106626
2016-03-30,-0.01588031482536041
2016-03-31,-0.019151795604991927
2016-04-01,-0.014980532626452098
2016-04-05,-0.018630771634305446
2016-04-06,-0.017533858450232954
2016-04-07,-0.011682511634783652
2016-04-08,-0.020847228846998002
2016-04-11,-0.014942753731475432
2016-04-12,-0.018721304790036454
2016-04-13,-0.03029719264153046
2016-04-14,-0.03321043416912546
2016-04-15,-0.03259286777954919
2016-04-18,-0.043347605928948645
2016-04-19,-0.0336710413503362
2016-04-20,-0.03675769767278544
2016-04-21,-0.021279312566659173
2016-04-22,-0.03195700094524462
2016-04-25,-0.02643254993355519
2016-04-26,-0.029983991609564747
2016-04-27,-0.011500570784637003
2016-04-28,-0.008298032047150204
2016-04-29,-0.02180620531046932
2016-05-03,-0.029145743573654733
2016-05-04,-0.036051528636177874
2016-05-05,-0.05305903938628549
2016-05-06,-0.04281288295650913
2016-05-09,-0.030777429458170247
2016-05-10,-0.03753312871258617
2016-05-11,-0.029075092750318117
2016-05-12,-0.028773432358844213
2016-05-13,-0.03590198479205009
2016-05-16,-0.04448066123272754
2016-05-17,-0.05387837004319161
2016-05-18,-0.0607188606324653
2016-05-19,-0.05423419599899987
2016-05-20,-0.04399291622531877
2016-05-23,-0.05079040568472454
2016-05-24,-0.0401256892382994
2016-05-25,-0.024526600929107384
2016-05-26,-0.019193694631364097
2016-05-27,-0.027764871626068027
2016-05-30,-0.028087052029509715
2016-05-31,-0.038125351189299723
2016-06-01,-0.0402631414254623
2016-06-02,-0.038506819420610544
2016-06-03,-0.042186174117643686
2016-06-06,-0.04279811507807275
2016-06-07,-0.02120986777313573
2016-06-08,-0.020592084700812287
2016-06-13,-0.053327384234872266
2016-06-14,-0.0367564614769752
2016-06-15,-0.046197414066735706
2016-06-16,-0.05332536235779242
2016-06-17,-0.06025735240160862
2016-06-20,-0.04149557194645834
2016-06-21,-0.04786111247339782
2016-06-22,-0.03861357212725425
2016-06-23,-0.039897435190945386
2016-06-24,-0.04502433050561918
2016-06-27,-0.05752066314743988
2016-06-28,-0.05339067947804596
2016-06-29,-0.054333762805438404
2016-06-30,-0.04174880370366026
2016-07-01,-0.03827053748918306
2016-07-04,-0.05165946537247056
2016-07-05,-0.04372594304348136
2016-07-06,-0.0254655083615676
2016-07-07,-0.042243279993992175
2016-07-08,-0.046964115551174385
2016-07-11,-0.016750019984806006
2016-07-12,-0.011694615850265986
2016-07-13,-0.011161119917860536
2016-07-14,-0.02985894017278706
2016-07-15,-0.017481843829088344
2016-07-18,-0.02463355743832113
2016-07-19,-0.0273509954623159
2016-07-20,-0.027932997910859056
2016-07-21,-0.014771764962999406
2016-07-22,-0.005339204199389047
2016-07-25,-0.013450873515951537
2016-07-26,-0.017860001194513694
2016-07-27,-0.027361343913736635
2016-07-28,-0.017450607485081628
2016-07-29,-0.017928587700935757
2016-08-01,-0.015323671127655605
2016-08-02,-0.007938665546128043
2016-08-03,-0.01752157810749546
2016-08-04,-0.03458140762917574
2016-08-05,-0.02246511699565492
2016-08-08,-0.0023352445477830205
2016-08-09,-0.0125850637879623
2016-08-10,-0.005972572931156182
2016-08-11,-0.005476475048450481
2016-08-12,0.0026632865127159955
2016-08-15,-0.012080386833707622
2016-08-16,-0.012568396509721766
2016-08-17,-0.010430832293155671
2016-08-18,-0.01921542501449905
2016-08-19,-0.013123741788853435
2016-08-22,-0.009527658128858644
2016-08-23,-0.030808992681067605
2016-08-24,-0.022269971501724543
2016-08-25,-0.02814921334104247
2016-08-26,-0.023126364779620698
2016-08-29,-0.018595077904233072
2016-08-30,-0.0243744399588025
2016-08-31,-0.017603130545120332
2016-09-01,-0.029214315092806645
2016-09-02,-0.01975531319596687
2016-09-05,-0.03790636601239429
2016-09-06,-0.049129022205810814
2016-09-07,-0.0481381489187606
2016-09-08,-0.06321077724856143
2016-09-09,-0.07263235268909608
2016-09-12,-0.024586416974181048
2016-09-13,-0.04848711527405371
2016-09-14,-0.04641145561084396
2016-09-19,-0.05649545313021022
2016-09-20,-0.040329310450174606
2016-09-21,-0.03027670313621545
2016-09-22,-0.03619392127655466
2016-09-23,-0.030383423927260778
2016-09-26,-0.033377433459392356
2016-09-27,-0.022855396866547664
2016-09-28,-0.020104895868831688
2016-09-29,-0.01129921718017985
2016-09-30,-0.030479825677595468
2016-10-10,-0.015922602537367457
2016-10-11,-0.028995229005498308
2016-10-12,-0.02205163294388815
2016-10-13,-0.036152489672599486
2016-10-14,-0.03247532000688209
2016-10-17,-0.021078914678895184
2016-10-18,-0.03650413580716612
2016-10-19,-0.031999062805523434
2016-10-20,-0.02946176436946738
2016-10-21,-0.036961770612496614
2016-10-24,-0.01434699911301271
2016-10-25,-0.011287299237055813
2016-10-26,-0.007717370528234967
2016-10-27,-0.00824035738102943
2016-10-28,-0.01747772704838538
2016-10-31,-0.001233013061745493
2016-11-01,-0.006671028719770597
2016-11-02,-0.011373874783130788
2016-11-03,-0.00896147043195248
2016-11-04,-0.02106511549560278
2016-11-07,-0.01275446688604855
2016-11-08,-0.028215016836403057
2016-11-09,-0.04250268324428496
2016-11-10,-0.0251399393287454
2016-11-11,-0.029706813023079988
2016-11-14,-0.02237282126647091
2016-11-15,-0.034353126120926676
2016-11-16,-0.026785978924121497
2016-11-17,-0.015454353794053466
2016-11-18,-0.021535788426192626
2016-11-21,-0.019680615988341053
2016-11-22,-0.005334366186771374
2016-11-23,-0.0020931509603122154
2016-11-24,-0.009039522632116399
2016-11-25,-0.01564484984604743
2016-11-28,-0.0016888803968818575
2016-11-29,-0.010158795128751282
2016-11-30,-0.01822262616775866
2016-12-01,-0.022491457849928786
2016-12-02,-0.027593898365698522
2016-12-05,-0.04393287674111006
2016-12-06,-0.04186075792544824
2016-12-07,-0.040062064427156506
2016-12-08,-0.024612109469816623
2016-12-09,-0.02809835676991665
2016-12-12,-0.03182220508200087
2016-12-13,-0.0408338528447615
2016-12-14,-0.042118932394175926
2016-12-15,-0.03326324784233903
2016-12-16,-0.03947022590576951
2016-12-19,-0.037488635317528315
2016-12-20,-0.04162893582333499
2016-12-21,-0.04172216021724467
2016-12-22,-0.04689158045789172
2016-12-23,-0.03641445453635137
2016-12-26,-0.028158332514847062
2016-12-27,-0.022058423199199425
2016-12-28,-0.017021081439178486
2016-12-29,-0.015212366625336187
2016-12-30,0.0012836527535326145
2017-01-03,0.008710724032875514
2017-01-04,-0.002340281843382929
2017-01-05,0.01843288951408022
2017-01-06,-0.00069605607257478
2017-01-09,0.008464551227101012
2017-01-10,0.007855910362709217
2017-01-11,0.013680135249706918
2017-01-12,0.018946067057926286
2017-01-13,0.026218082700913102
2017-01-16,0.04369613278628223
2017-01-17,0.01798661635242058
2017-01-18,0.021446988054221683
2017-01-19,0.010988740739759754
2017-01-20,0.005892558130275633
2017-01-23,-0.0024492772926398287
2017-01-24,-0.00804951961701338
2017-01-25,-0.011706245034608612
2017-01-26,0.015144658203045041
2017-02-03,0.01052484457998214
2017-02-06,-3.298209267804664e-05
2017-02-07,0.016746844477692042
2017-02-08,0.005343113718877496
2017-02-09,0.0018717836817143717
2017-02-10,0.03598360375951915
2017-02-13,0.012233514625269858
2017-02-14,0.009571431239703297
2017-02-15,0.015339321322216624
2017-02-16,0.011844486181572926
2017-02-17,0.00065934963997453
2017-02-20,0.005373219876430626
2017-02-21,0.01236130181811937
2017-02-22,0.014041476186293662
2017-02-23,0.024004034493924322
2017-02-24,0.02714168147058073
2017-02-27,0.02536807656506737
2017-02-28,0.02502212156830761
2017-03-01,0.03775914237609973
2017-03-02,0.04418241141809127
2017-03-03,0.043866488649542866
2017-03-06,0.046419039108036096
2017-03-07,0.042085646783853896
2017-03-08,0.040939439337726306
2017-03-09,0.03498329552243695
2017-03-10,0.0364588871832764
2017-03-13,0.05073036335455444
2017-03-14,0.051893080412312255
2017-03-15,0.0472361093631278
2017-03-16,0.033459121551137214
2017-03-17,0.02898005512141444
2017-03-20,0.027200813157876313
2017-03-21,0.022549586130256632
2017-03-22,0.03818236409653805
2017-03-23,0.050291234062212864
2017-03-24,0.05430650969035754
2017-03-27,0.03173176740147618
2017-03-28,0.06024737205292052
2017-03-29,0.057194878603267336
2017-03-30,0.05512651506159708
2017-03-31,0.03945993384010482
2017-04-05,0.035860241348457784
2017-04-06,0.035324766691297936
2017-04-07,0.03615743229452362
2017-04-10,0.03563262005080064
2017-04-11,0.03985413850016541
2017-04-12,0.019548577755679395
2017-04-13,0.005994274494281683
2017-04-14,0.0067673246459612445
2017-04-17,-0.0029812739413629386
2017-04-18,-0.007403471147738434
2017-04-19,0.005061790166269453
2017-04-20,-0.0026170069734425053
2017-04-21,-0.015465084742968913
2017-04-24,-0.00637294372717747
2017-04-25,0.022795083616854075
2017-04-26,-0.00927547547300446
2017-04-27,-0.0300575279292295
2017-04-28,-0.0007444461507512962
2017-05-02,0.02171842049825607
2017-05-03,0.015640661204343688
2017-05-04,0.025657221228585235
2017-05-05,-0.0029501154248613853
2017-05-08,0.009175476264276797
2017-05-09,0.007283750450955667
2017-05-10,-0.0038455697909641207
2017-05-11,0.004860640355985962
2017-05-12,0.01831189936573803
2017-05-15,0.010992900662659275
2017-05-16,0.019016484615280466
2017-05-17,0.010971869795480038
2017-05-18,0.013529883553753994
2017-05-19,0.009475974178843577
2017-05-22,0.00038850580818750036
2017-05-23,0.00614924905732761
2017-05-24,0.015367471201716554
2017-05-25,0.014236709783991344
2017-05-26,0.009106398553887673
2017-05-31,0.02763382700646652
2017-06-01,0.021323039360717687
2017-06-02,0.0031092190746444814
2017-06-05,-0.011385811656819594
2017-06-06,-0.015891303661251147
2017-06-07,-0.01591268902455953
2017-06-08,-0.011188151579451813
2017-06-09,-0.016280576405055328
2017-06-12,-0.020731095957687365
2017-06-13,-0.018123333142729472
2017-06-14,-0.012342857560282777
2017-06-15,-0.0020053828214526975
2017-06-16,0.011566423298413744
2017-06-19,0.022382484600728045
2017-06-20,-0.010502790548181595
2017-06-21,0.005342679838740982
2017-06-22,-0.006729617376259683
2017-06-23,0.0020252593813291503
2017-06-26,0.0007970742229080688
2017-06-27,0.0014582923389079572
2017-06-28,-0.009959258284036647
2017-06-29,0.006182534403928512
2017-06-30,-0.004242513923816346
2017-07-03,0.004764575351966338
2017-07-04,-0.01847033154201999
2017-07-05,-0.016223428914775892
2017-07-06,0.00021247361268891818
2017-07-07,-0.0006498361448765075
2017-07-10,-0.0056205949722105755
2017-07-11,-0.00562443864235046
2017-07-12,-0.013710093063897283
2017-07-13,-0.006342795092147545
2017-07-14,-0.00847080547454989
2017-07-17,-0.027317691932584556
2017-07-18,-0.0251033491263185
2017-07-19,-0.018648674126673155
2017-07-20,-0.013290501904792328
2017-07-21,-0.016089679180194293
2017-07-24,-0.02392886417878503
2017-07-25,-0.005680555772067185
2017-07-26,-0.007663653816140592
2017-07-27,-0.010543657787732315
2017-07-28,-0.006146194599754962
2017-07-31,-0.003460457994528765
2017-08-01,0.009862866652047324
2017-08-02,-0.010681505147749314
2017-08-03,-0.005585519476221351
2017-08-04,-0.003861454639538124
2017-08-07,0.0037870727725308057
2017-08-08,-0.011575328183040072
2017-08-09,-0.025907691170750972
2017-08-10,-0.02868135089457651
2017-08-11,-0.03284283663120234
2017-08-14,-0.010569160869947539
2017-08-15,0.0010032872587909664
2017-08-16,0.009717442715139059
2017-08-17,-0.006083131915493652
2017-08-18,-0.0009835646123914285
2017-08-21,0.010875052777572253
2017-08-22,0.014245776500014642
2017-08-23,-0.003507107236610449
2017-08-24,0.0016614079380217611
2017-08-25,0.010410114276543779
2017-08-28,0.012625542188221067
2017-08-29,0.009470534732266493
2017-08-30,0.005106922701131812
2017-08-31,0.011671379129763747
2017-09-01,0.013634048087967301
2017-09-04,0.011712124287147577
2017-09-05,0.030246197655940308
2017-09-06,0.024448519226745742
2017-09-07,0.021208640746300765
2017-09-08,0.021112026119796137
2017-09-11,0.009031393147256074
2017-09-12,0.023481989468457552
2017-09-13,0.02199452165226655
2017-09-14,0.016408260678436835
2017-09-15,0.009140577269864742
2017-09-18,0.008891604826992437
2017-09-19,-0.001815903824672567
2017-09-20,0.013301815896108805
2017-09-21,-0.00030103185963482534
2017-09-22,-0.021364059743961775
2017-09-25,-0.012000826171033067
2017-09-26,-0.02396565959370158
2017-09-27,-0.014990794376643853
2017-09-28,0.01492399178301827
2017-09-29,0.02128016787954507
2017-10-09,0.03584895423983926
2017-10-10,0.03291922312142256
2017-10-11,0.02793629606400154
2017-10-12,0.037668950002545575
2017-10-13,0.032274140899045414
2017-10-16,0.03277498940438358
2017-10-17,0.035000646238208824
2017-10-18,0.03466156984083919
2017-10-19,0.028561103301167345
2017-10-20,0.04452062220377227
2017-10-23,0.045776432118429876
2017-10-24,0.02925532345813061
2017-10-25,0.028019390447067846
2017-10-26,0.027661872972970424
2017-10-27,-0.007371555398857123
2017-10-30,0.0018255298522122307
2017-10-31,-0.011755825973695365
2017-11-01,-0.017124255145480216
2017-11-02,-0.009201773882573983
2017-11-03,-0.0022252829357598466
2017-11-06,-0.0026041391128460364
2017-11-07,-0.010250291949865504
2017-11-08,0.016385829593875186
2017-11-09,0.0001763011676330856
2017-11-10,0.021291608130026507
2017-11-13,0.03941229475983108
2017-11-14,0.03843780067467695
2017-11-15,0.013715446696721662
2017-11-16,0.026369241999352318
2017-11-17,-0.0037448400668835882
2017-11-20,0.003936555119902853
2017-11-21,0.0071396718529892
2017-11-22,0.02621939580637586
2017-11-23,0.003237256242657048
2017-11-24,0.006744216885678424
2017-11-27,0.006235320462594828
2017-11-28,0.0013117016106215587
2017-11-29,0.012753341788591478
2017-11-30,0.014217964473918921
2017-12-01,0.015945659442970533
2017-12-04,0.016570107553099442
2017-12-05,0.016579743507500355
2017-12-06,0.015554966546021494
2017-12-07,0.010512417258936094
2017-12-08,0.007644296151377397
2017-12-11,0.01942880922925269
2017-12-12,0.01599781845310135
2017-12-13,0.022967342702666822
2017-12-14,0.012942469207982015
2017-12-15,0.00541997660391837
2017-12-18,0.007249639867855591
2017-12-19,0.014391114546894082
2017-12-20,0.011310931982281502
2017-12-21,0.015137988387620073
2017-12-22,0.007151324453255323
2017-12-25,-0.008353910764123396
2017-12-26,-0.0008711854022321608
2017-12-27,0.0023608964069595333
2017-12-28,-0.018328600218975748
2017-12-29,-0.01337316825137111
2018-01-02,-0.01314252198913405
2018-01-03,-0.003968048383387698
2018-01-04,-0.003440131174096153
2018-01-05,-0.004958733032776115
2018-01-08,0.0015447733397192104
2018-01-09,0.0019593357151223845
2018-01-10,0.0014187415550781443
2018-01-11,-0.010958945379666019
2018-01-12,0.0007556332459016796
2018-01-15,-0.02018345017573059
2018-01-16,-0.035168762992346884
2018-01-17,-0.019323668128093455
2018-01-18,-0.017217050241700303
2018-01-19,-0.01813780582138058
2018-01-22,-0.03471018810521265
2018-01-23,-0.04076318018634256
2018-01-24,-0.019019876284353254
2018-01-25,-0.010922615283095141
2018-01-26,-0.01860430045260293
2018-01-29,-0.023920119616431035
2018-01-30,-0.020526774207889745
2018-01-31,-0.023564782359421325
2018-02-01,-0.033241256790596474
2018-02-02,-0.047285386769660834
2018-02-05,-0.046826283855278546
2018-02-06,-0.05460091959919021
2018-02-07,-0.05447396836762154
2018-02-08,-0.04468824207904216
2018-02-09,-0.05140469435662669
2018-02-12,-0.04138071623521956
2018-02-13,-0.05576430606888604
2018-02-14,-0.06866450871037698
2018-02-22,-0.04945107586836328
2018-02-23,-0.04769914618744842
2018-02-26,-0.02326809878657679
2018-02-27,-0.01461208685151004
2018-02-28,-0.008498822650586213
2018-03-01,0.009392404597914496
2018-03-02,0.008209377873395186
2018-03-05,0.018077627860379253
2018-03-06,0.02615847171059945
2018-03-07,0.011806353920083959
2018-03-08,0.013081241164687368
2018-03-09,0.01462957408923473
2018-03-12,0.0261930157997166
2018-03-13,0.02406957666095136
2018-03-14,0.02083986164105992
2018-03-15,0.017369427703380666
2018-03-16,0.019902956674294425
2018-03-19,0.017883837063164064
2018-03-20,0.03458770925396604
2018-03-21,0.029366138607542808
2018-03-22,0.016316393067386095
2018-03-23,0.008242959195862841
2018-03-26,0.0019051501793362763
2018-03-27,0.017212090999495097
2018-03-28,0.02229326403327686
2018-03-29,0.012101583779664901
2018-03-30,0.01172260555524847
2018-04-02,0.02353469385739443
2018-04-03,0.014947955461803053
2018-04-04,0.004615930224916465
2018-04-09,0.008189743711620942
2018-04-10,0.011162802779056749
2018-04-11,0.014094527432687978
2018-04-12,0.010076159077169966
2018-04-13,0.00733551949820177
2018-04-16,0.00519795308991608
2018-04-17,0.006318845365594239
2018-04-18,0.014696144255801943
2018-04-19,0.015605244330768792
2018-04-20,0.013142808557115152
2018-04-23,-0.0014768277480586567
2018-04-24,0.005034070048402117
2018-04-25,-0.0017549790125550024
2018-04-26,-0.000864720150809406
2018-04-27,0.005920595791406094
2018-05-02,-0.005442159066772312
2018-05-03,-0.013407607033448551
2018-05-04,-0.0032950853384563217
2018-05-07,-0.002917984848225738
2018-05-08,-0.0010715399643711765
2018-05-09,0.0024167731274792464
2018-05-10,-0.0076354103785536975
2018-05-11,-0.007306073018003428
2018-05-14,0.010224511575454509
2018-05-15,0.020899979297369822
2018-05-16,0.012973552545042524
2018-05-17,0.018084320881356503
2018-05-18,0.013550878523436324
2018-05-21,0.03412213847608879
2018-05-22,-0.00015174407763832165
2018-05-23,0.04008915876230344
2018-05-24,0.022833717950383275
2018-05-25,0.0309741262683374
2018-05-28,0.022911078601384374
2018-05-29,0.023538306353559274
2018-05-30,0.006501427370489907
2018-05-31,0.00470905231391372
2018-06-01,-0.000706457627150589
2018-06-04,-0.005504936318746129
2018-06-05,-0.003223131317862185
2018-06-06,-0.004279040628071898
2018-06-07,0.005767989577954866
2018-06-08,0.006839864249728378
2018-06-11,0.010944821667577806
2018-06-12,0.01959895169311905
2018-06-13,0.01508625897247419
2018-06-14,0.013865977289627712
2018-06-15,0.008034886977709765
2018-06-19,-0.01729826315386808
2018-06-20,-0.023147542030021784
2018-06-21,-0.019871128824739237
2018-06-22,-0.015785935946809236
2018-06-25,-0.00485570930570637
2018-06-26,-0.03202624874932396
2018-06-27,-0.02490088773552899
2018-06-28,-0.02792052651202665
2018-06-29,-0.030071772828701826
2018-07-02,-0.03288253568224032
2018-07-03,-0.02917294300953944
2018-07-04,-0.031017366711053464
2018-07-05,-0.02728922078264795
2018-07-06,-0.01680559237817921
2018-07-09,-0.01499720919090513
2018-07-10,-0.020216375930382974
2018-07-11,-0.0074564614846917635
2018-07-12,0.012663053172405167
2018-07-13,-0.009839046488070158
2018-07-16,-0.009372042146340992
2018-07-17,-0.005527928422377246
2018-07-18,0.0070401286329144774
2018-07-19,-0.01329670637889628
2018-07-20,0.016645881947654387
2018-07-23,0.023908495798352705
2018-07-24,0.028552350121725315
2018-07-25,0.03265422431632781
2018-07-26,0.036012239893698894
2018-07-27,0.01546207051200385
2018-07-30,0.03799448017706698
2018-07-31,0.033650025027845434
2018-08-01,0.02435636909033554
2018-08-02,0.033997400622451976
2018-08-03,0.014736012215835852
2018-08-06,0.0020322041399426297
2018-08-07,0.014665967402360057
2018-08-08,0.01626650469894205
2018-08-09,0.0007640392888542749
2018-08-10,-0.017935090110583786
2018-08-13,-0.015503953150638284
2018-08-14,-0.014625019790780087
2018-08-15,-0.017161626426228267
2018-08-16,-0.020807038748294086
2018-08-17,-0.0320980140204474
2018-08-20,-0.01648430185705737
2018-08-21,-0.015488146600041441
2018-08-22,-0.022358220585078938
2018-08-23,-0.014940896484703554
2018-08-24,-0.010167597985854343
2018-08-27,-0.001146482465366555
2018-08-28,-0.013797187163527687
2018-08-29,-0.012211582783137408
2018-08-30,-0.006307174101874834
2018-08-31,-0.006106656597166539
2018-09-03,-0.009565698483938099
2018-09-04,0.00816933580185946
2018-09-05,-0.01091366773119224
2018-09-06,-0.012455594812228094
2018-09-07,-0.006285217697065009
2018-09-10,-0.014371116840543825
2018-09-11,-0.01942960579128992
2018-09-12,-0.01648224372159031
2018-09-13,-0.0081281754320506
2018-09-14,-0.013876507220084171
2018-09-17,-0.0007022504679075128
2018-09-18,0.0062805279400972025
2018-09-19,0.007972699139746194
2018-09-20,0.011497387263633897
2018-09-21,0.015727468928120394
2018-09-25,0.020648090641254294
2018-09-26,0.012556559578436793
2018-09-27,0.01011994448394865
2018-09-28,0.014869329427580916
2018-10-08,0.010502907016825352
2018-10-09,0.00333927902988565
2018-10-10,0.0008833259945610697
2018-10-11,-0.027758575638824896
2018-10-12,-0.02744457558191777
2018-10-15,-0.021649839947151348
2018-10-16,-0.025116360321736086
2018-10-17,-0.023225031343521493
2018-10-18,-0.047672883461465684
2018-10-19,-0.03467233451591148
2018-10-22,-0.025570821154238633
2018-10-23,-0.006784261653065989
2018-10-24,-0.005909822208172093
2018-10-25,-0.0045346323272309405
2018-10-26,0.0017241538310983709
2018-10-29,0.008772211655837997
2018-10-30,0.015942233660383966
2018-10-31,0.009653250477692117
2018-11-01,0.010567683202644096
2018-11-02,0.013286611673356975
2018-11-05,0.023203276648641618
2018-11-06,0.03192330385206228
2018-11-07,0.02611915202819912
2018-11-08,0.02215528580845788
2018-11-09,0.030474840127351393
2018-11-12,0.023086265882905313
2018-11-13,0.032699230102575264
2018-11-14,0.035012951060282224
2018-11-15,0.037673717051603973
2018-11-16,0.03357032150465873
2018-11-19,0.036722012845063844
2018-11-20,0.029193235911243873
2018-11-21,0.03146768143492639
2018-11-22,0.03418599042976822
2018-11-23,0.013701483143927329
2018-11-26,0.010865570493060528
2018-11-27,0.015722024628455983
2018-11-28,0.01732914794095279
2018-11-29,0.029253205974984348
2018-11-30,0.03836287360342855
2018-12-03,0.02578732710675788
2018-12-04,0.010066914255876275
2018-12-05,0.026762894105263224
2018-12-06,0.02044818066227458
2018-12-07,0.00873574251823625
2018-12-10,0.004426264847130601
2018-12-11,0.005033459983914468
2018-12-12,-0.00309413416791815
2018-12-13,-0.029257295415844126
2018-12-14,-0.03265489831621249
2018-12-17,-0.008572771639627663
2018-12-18,-0.04475324091851554
2018-12-19,-0.04312308216288738
2018-12-20,-0.051238161050761316
2018-12-21,-0.06063397098539605
2018-12-24,-0.060751867712537155
2018-12-25,-0.03355308057807521
2018-12-26,-0.05520325930407838
2018-12-27,-0.05720326932245767
2018-12-28,-0.08752536110632034
2019-01-02,-0.08944191987440553
2019-01-03,-0.07602892936396796
2019-01-04,-0.07828401460053155
2019-01-07,-0.06844808436225697
2019-01-08,-0.06468249903020515
2019-01-09,-0.0529826544971046
2019-01-10,-0.05707726289259618
2019-01-11,-0.05589476652472433
2019-01-14,-0.07954831375703939
2019-01-15,-0.05957052121123599
2019-01-16,-0.057242907552109895
2019-01-17,-0.06512492533985256
2019-01-18,-0.05558574710994579
2019-01-21,-0.03206394175858035
2019-01-22,-0.05124405150008135
2019-01-23,-0.03327884147414917
2019-01-24,-0.03752641700231124
2019-01-25,-0.04538976459242858
2019-01-28,-0.041714460186636465
2019-01-29,-0.0173897237244532
2019-01-30,-0.022439140399740792
2019-01-31,-0.017931001191235724
2019-02-01,-0.005905162277581283
2019-02-11,0.0008951453525508218
2019-02-12,0.0010780428475979376
2019-02-13,0.015346637645597044
2019-02-14,0.012799949280848502
2019-02-15,0.009106570798911362
2019-02-18,0.022687023645917632
2019-02-19,0.00994233807752326
2019-02-20,0.001394759346634071
2019-02-21,-0.0010009639891679425
2019-02-22,-0.0008661691171517674
2019-02-25,-0.0032256367930437874
2019-02-26,0.00038192107698156036
2019-02-27,0.00643362527892676
2019-02-28,0.015736541186596217
2019-03-01,0.011769534725280025
2019-03-04,0.006109466899463921
2019-03-05,0.0019341583449679414
2019-03-06,0.002787418701891052
2019-03-07,0.0014364851033649706
2019-03-08,-0.0016280320009113593
2019-03-11,-0.009885123946363567
2019-03-12,0.00043546811258212553
2019-03-13,0.00033667341939875445
2019-03-14,-0.007723792580727036
2019-03-15,-0.009286446739421222
2019-03-18,-0.007326312276150521
2019-03-19,-0.005764457111509101
2019-03-20,-0.009738289103331223
2019-03-21,-0.012392638253059488
2019-03-22,-0.010841289907595905
2019-03-25,-0.005467937976826414
2019-03-26,-0.011975277274763628
2019-03-27,-0.007853646771968613
2019-03-28,-0.007246295799273363
2019-03-29,-0.002613252033898392
2019-04-01,0.001211574703862725
2019-04-02,-0.006104971419801271
2019-04-03,0.0021753781819836143
2019-04-04,-0.007941219070500175
2019-04-08,0.0038844078884298708
2019-04-09,0.0018272546648936544
2019-04-10,0.01305266598297089
2019-04-11,0.017829753863575284
2019-04-12,0.019895458087396733
2019-04-15,0.026932138795607005
2019-04-16,0.018424481356639613
2019-04-17,0.015638780942552777
2019-04-18,0.013968462853320877
2019-04-19,0.007345468027398196
2019-04-22,0.009082182888956958
2019-04-23,0.006970799182446363
2019-04-24,0.010349898356157152
2019-04-25,0.009810974549423417
2019-04-26,0.008788352673560908
2019-04-29,0.010750531099201786
2019-04-30,0.004812374908451121
2019-05-06,0.006219955423557237
2019-05-07,0.00920622834580885
2019-05-08,0.006952989762617386
2019-05-09,0.007146179965274876
2019-05-10,-0.0024189620080295807
2019-05-13,0.009004846607790468
2019-05-14,0.01121598266430934
2019-05-15,0.0061694616213510065
2019-05-16,0.008042734250037278
2019-05-17,0.014739551118965057
2019-05-20,0.011409490469695732
2019-05-21,0.012155015588924234
2019-05-22,0.014951922510457773
2019-05-23,0.013249143570256819
2019-05-24,0.00517793774454238
2019-05-27,0.018284127149241464
2019-05-28,0.013625404794429703
2019-05-29,0.004981154621813054
2019-05-30,0.021876285098022065
2019-05-31,0.025793274098071202
2019-06-03,0.012490038376940446
2019-06-04,0.013004666199566146
2019-06-05,0.015838095147424118
2019-06-06,0.0163946383503666
2019-06-10,0.006650485776814312
2019-06-11,0.011289233761125117
2019-06-12,0.0072598609391002905
2019-06-13,0.0012611353916872486
2019-06-14,-0.0030918728968026693
2019-06-17,-0.0170665936809839
2019-06-18,-0.0086376574849681
2019-06-19,0.0007148987060612635
2019-06-20,-0.0015138138860004355
2019-06-21,0.001410673285595715
2019-06-24,0.008259781450103691
2019-06-25,0.009313116702859253
2019-06-26,0.009413068715793269
2019-06-27,0.008785256699119347
2019-06-28,0.005590350313940399
2019-07-01,0.009100919169871134
2019-07-02,0.014277376501938003
2019-07-03,0.032198561076859505
2019-07-04,0.023664541383112244
2019-07-05,0.021455543510023416
2019-07-08,0.017980869784541213
2019-07-09,0.017524464364715834
2019-07-10,0.008844544672833493
2019-07-11,0.0021474029841561035
2019-07-12,0.0011502655557465366
2019-07-15,0.0038907329905150077
2019-07-16,0.0006726833795343279
2019-07-17,0.008468039797470184
2019-07-18,0.0015707398311662554
2019-07-19,0.004859761242984793
2019-07-22,-0.007483095247931313
2019-07-23,0.005592627280924654
2019-07-24,-0.0010511040256502256
2019-07-25,0.004789028613434686
2019-07-26,-0.004193600364124774
2019-07-29,-0.0035283846445895543
2019-07-30,0.002816765001984335
2019-07-31,-0.00020813462225677953
2019-08-01,0.004436853078379401
2019-08-02,0.009933440068603298
2019-08-05,0.0052403990477438295
2019-08-06,-0.0044921529257011955
2019-08-07,0.004302159748359638
2019-08-08,-0.005492887528651971
2019-08-09,0.004838296768116472
2019-08-12,-0.004014784711816613
2019-08-13,0.0071262888813757586
2019-08-14,-0.004925289145653294
2019-08-15,-0.009878461240878732
2019-08-16,-0.00509753080501156
2019-08-19,-0.0038044808107428538
2019-08-20,0.002997881611473196
2019-08-21,0.0015574714906049433
2019-08-22,-0.007734716173836902
2019-08-23,-0.012598419473680036
2019-08-26,-0.013487812565529427
2019-08-27,-0.0025691089163606233
2019-08-28,-0.005268651596618525
2019-08-29,-0.006516036328009045
2019-08-30,-0.003991058722222007
2019-09-02,-0.0062720084733466405
2019-09-03,-0.0060038970466162675
2019-09-04,-0.0003423041033805037
2019-09-05,0.005458940355881381
2019-09-06,-0.0020772902432323053
2019-09-09,0.005491770019672776
2019-09-10,0.009420827740086957
2019-09-11,0.018317951968298978
2019-09-12,0.012629235295876963
2019-09-16,0.01770660971157373
2019-09-17,0.014914146990909184
2019-09-18,0.014480205227468582
2019-09-19,0.010899651317446003
2019-09-20,0.013204830139413735
2019-09-23,0.002658423509872991
2019-09-24,-0.0022765187830361376
2019-09-25,0.012493933315359931
2019-09-26,0.005834548658984952
2019-09-27,-0.003813742095754878
2019-09-30,-0.001176211227656515
2019-10-08,0.002932109728743318
2019-10-09,0.005962346056377632
2019-10-10,0.0045665741924105635
2019-10-11,0.008605323192168987
2019-10-14,0.007258031599262027
2019-10-15,0.01071928797113015
2019-10-16,0.016300295252415373
2019-10-17,0.021460551191339952
2019-10-18,0.029395043993377112
2019-10-21,0.01850968660807069
2019-10-22,0.029297982216320212
2019-10-23,0.019071738575525368
2019-10-24,0.005650681009260555
2019-10-25,-0.0037228998673098923
2019-10-28,0.033072689596489555
2019-10-29,0.00030430946797958824
2019-10-30,0.023181474084166945
2019-10-31,0.03196133820747947
2019-11-01,0.03924573810498937
2019-11-04,0.027311535025560146
2019-11-05,0.0278025136742528
2019-11-06,0.03372854998481557
2019-11-07,0.03728355662587624
2019-11-08,0.030565103573170566
2019-11-11,0.023820683456975134
2019-11-12,0.021858856222630958
2019-11-13,0.012594044058351211
2019-11-14,0.017807250840331926
2019-11-15,-0.007709107028111367
2019-11-18,-0.015125799765672535
2019-11-19,0.02896527160205778
2019-11-20,0.04165890628237233
2019-11-21,0.09093279715934975
2019-11-22,0.10969571023352816
2019-11-25,0.10554412661145277
2019-11-26,0.09903812867479284
2019-11-27,0.09177621214768347
2019-11-28,0.08273044277613412
2019-11-29,0.0775564059407732
2019-12-02,0.07702613347031158
2019-12-03,0.057929343605865366
2019-12-04,0.062292601288457164
2019-12-05,0.05849279419350664
2019-12-06,0.05451077652978817
2019-12-09,0.06104909002606028
2019-12-10,0.07399661500822838
2019-12-11,0.09213429511417742
2019-12-12,0.052425637920751056
2019-12-13,0.06447784332656091
2019-12-16,0.08952825641635881
2019-12-17,0.09538966500100557
2019-12-18,0.08810270178832062
2019-12-19,0.09401357837347679
2019-12-20,0.09154040380361597
2019-12-23,0.08344613748144954
2019-12-24,0.08785030204037488
2019-12-25,0.07547551648876007
2019-12-26,0.06473329287661142
2019-12-27,0.06931882284371306
2019-12-30,0.07665095374703876
2019-12-31,0.08662917443801478
2020-01-02,0.09059430399741236
2020-01-03,0.07606613285948227
2020-01-06,0.07546846755400712
2020-01-07,0.07516597489122695
2020-01-08,0.0560670535178939
2020-01-09,0.06714555504133718
2020-01-10,0.059403182358428966
2020-01-13,0.05886888331704174
2020-01-14,0.06845004740789096
2020-01-15,0.04934936413442405
2020-01-16,0.05311334532327479
2020-01-17,0.054450665886746435
2020-01-20,0.0587884690371802
2020-01-21,0.05931076378873476
2020-01-22,0.05098076548803314
2020-01-23,0.050767527931151725
2020-02-03,0.060772507932315034
2020-02-04,0.04256943029931366
2020-02-05,0.05777676994272965
2020-02-06,0.06618310469640923
2020-02-07,0.0670013250156365
2020-02-10,0.07176323037186302
2020-02-11,0.055371514447562276
2020-02-12,0.061475355632479224
2020-02-13,0.06216746506274985
2020-02-14,0.07085544719044509
2020-02-17,0.0647419584644163
2020-02-18,0.04704984303994475
2020-02-19,0.04906902097332344
2020-02-20,0.036692541477868885
2020-02-21,0.030606697580245527
2020-02-24,0.022540004176523062
2020-02-25,0.003719574211692958
2020-02-26,0.006033763910153762
2020-02-27,0.00024008359130656826
2020-02-28,-0.0035586695976955914
2020-03-02,-0.000860046852092268
2020-03-03,-0.007233184662373701
2020-03-04,-0.006184410459964353
2020-03-05,0.0006513152246147152
2020-03-06,-0.002368069235718591
2020-03-09,0.01762428697933218
2020-03-10,-0.00011445794174866873
2020-03-11,0.0052808608189626035
2020-03-12,-0.0019059804538417366
2020-03-13,-0.01218974718177078
2020-03-16,0.025216774897373076
2020-03-17,0.024692266785023287
2020-03-18,0.01885962074241361
2020-03-19,0.003124672020069913
2020-03-20,0.02341403779062784
2020-03-23,0.043633271276721314
2020-03-24,0.047762253159383095
2020-03-25,0.05742967376065512
2020-03-26,0.05294575806335615
2020-03-27,0.05701462217222152
2020-03-30,0.06352388869081828
2020-03-31,0.051209306664846146
2020-04-01,0.04254756906648555
2020-04-02,0.02411060197072623
2020-04-03,-0.0018312721705819046
2020-04-07,0.005431616999132249
2020-04-08,-0.013620393603690079
2020-04-09,-0.008839747257742225
2020-04-10,0.02006068556825691
2020-04-13,0.05495711658583119
2020-04-14,0.043396648827091794
2020-04-15,0.06371773690161467
2020-04-16,0.03192143913958623
2020-04-17,0.03931231787051642
2020-04-20,0.010959013035298726
2020-04-21,0.025660765892335125
2020-04-22,0.018246332397292397
2020-04-23,0.038231810027811924
2020-04-24,0.022510254028730553
2020-04-27,0.01334794031856712
2020-04-28,0.009413658167222866
2020-04-29,0.014669653327509469
2020-04-30,0.02330818801511031
2020-05-06,0.015442802621169621
2020-05-07,0.010659656958221297
2020-05-08,0.009370974639527407
2020-05-11,0.02433118097059142
2020-05-12,7.698579553869211e-05
2020-05-13,-0.010876533424856893
2020-05-14,-0.009553543949081533
2020-05-15,-0.005022166382173121
2020-05-18,-0.01043942959759131
2020-05-19,-0.03322571220352813
2020-05-20,-0.010872192950543313
2020-05-21,-0.03432429035366896
2020-05-22,-0.03292388441758315
2020-05-25,-0.047699430460658
2020-05-26,-0.04692950052901124
2020-05-27,-0.028831975352291206
2020-05-28,-0.020422667974870135
2020-05-29,-0.029382165620294526
2020-06-01,-0.02133487401507206
2020-06-02,-0.010453760728915185
2020-06-03,-0.018012645414634543
2020-06-04,-0.013556054367324044
2020-06-05,-0.02027251596646243
2020-06-08,-0.008509652688853148
2020-06-09,-0.012621097406780107
2020-06-10,-0.023793342419789837
2020-06-11,-0.03379423395031961
2020-06-12,-0.05703654904327424
2020-06-15,-0.06062028162901467
2020-06-16,-0.05625599877091897
2020-06-17,-0.05123233069120882
2020-06-18,-0.05060582148121055
2020-06-19,-0.05530191635462585
2020-06-22,-0.06604371624176981
2020-06-23,-0.07835995854630799
2020-06-24,-0.08552157645802082
2020-06-29,-0.08668078993382633
2020-06-30,-0.08019393119255645
2020-07-01,-0.0569372277785922
2020-07-02,-0.03575655451632584
2020-07-03,-0.029488812728135142
2020-07-06,-0.034405485188385786
2020-07-07,-0.0355468515876823
2020-07-08,-0.029638878977216343
2020-07-09,-0.03685948696819139
2020-07-10,-0.0337750813709972
2020-07-13,-0.02862766951103011
2020-07-14,-0.028820393412600002
2020-07-15,-0.024810538424074324
2020-07-16,-0.015639146588922292
2020-07-17,-0.010157487446485574
2020-07-20,-0.006347631504704732
2020-07-21,-0.006357174094770828
2020-07-22,9.914774407802722e-05
2020-07-23,-0.011688470882031798
2020-07-24,-0.009003874154267203
2020-07-27,-0.010252927596902241
2020-07-28,-0.004785626989813533
2020-07-29,-0.008128282354129148
2020-07-30,-0.00932173087783623
2020-07-31,-0.013802106755325593
2020-08-03,-0.02196343577148749
2020-08-04,-0.014923621927488442
2020-08-05,-0.031812819967606806
2020-08-06,-0.032865500799737025
2020-08-07,-0.02666776135936921
2020-08-10,-0.030155599972806882
2020-08-11,-0.03504130077766737
2020-08-12,-0.02478795612601593
2020-08-13,-0.017833312260526153
2020-08-14,-0.03855821181191015
2020-08-17,-0.04686866855177055
2020-08-18,-0.05135295736236156
2020-08-19,-0.032301371637351736
2020-08-20,-0.032964341441955154
2020-08-21,-0.04824021055971473
2020-08-24,-0.048557831327941905
2020-08-25,-0.05966363549104868
2020-08-26,-0.05789570506409021
2020-08-27,-0.06625901436709017
2020-08-28,-0.07395851729991795
2020-08-31,-0.0685398023071478
2020-09-01,-0.047743632004807614
2020-09-02,-0.04321930384012525
2020-09-03,-0.03829054098361413
2020-09-04,-0.03464938535516053
2020-09-07,-0.015527559836918052
2020-09-08,-0.011542402301758937
2020-09-09,-0.008204619223482569
2020-09-10,-0.008366278698613554
2020-09-11,-0.01156393388732925
2020-09-14,-0.003410294007888101
2020-09-15,-0.006361939906369372
2020-09-16,-0.002950972965506976
2020-09-17,-0.01121335860381998
2020-09-18,-0.0035593718229350937
2020-09-21,0.004885221209940976
2020-09-22,0.0009017283921235256
2020-09-23,-0.012410408835227107
2020-09-24,-0.019171477990700847
2020-09-25,-0.040855552011668794
2020-09-28,-0.031951071494641034
2020-09-29,-0.03874409945731325
2020-09-30,-0.03969453202832074
2020-10-09,-0.027758193129933835
2020-10-12,-0.020170871847549454
2020-10-13,-0.022252959503839938
2020-10-14,-0.02230772863518586
2020-10-15,-0.023807312092535157
2020-10-16,-0.023202735458825223
2020-10-19,-0.023869985601208177
2020-10-20,-0.02884590727145135
2020-10-21,-0.03840752883908263
2020-10-22,-0.041985222224998245
2020-10-23,-0.016709024678040432
2020-10-26,-0.03935883155346326
2020-10-27,-0.04130311441206429
2020-10-28,-0.024224794987446674
2020-10-29,-0.022876027676781582
2020-10-30,-0.0024391895820469744
2020-11-02,-0.012426840384199
2020-11-03,0.0007259987481001151
2020-11-04,-0.0024607692996407304
2020-11-05,0.004400385457557984
2020-11-06,0.0235260393157765
2020-11-09,0.013034050372982511
2020-11-10,0.015129291371708452
2020-11-11,0.029021269760553775
2020-11-12,0.03090973550555636
2020-11-13,0.04075699452518744
2020-11-16,0.04858757203478879
2020-11-17,0.03311066037559261
2020-11-18,0.02668658801718464
2020-11-19,0.02620600960219671
2020-11-20,0.01514253558469321
2020-11-23,0.011270889189477454
2020-11-24,0.013349486830876257
2020-11-25,-0.0002906544735743338
2020-11-26,0.009183855635516956
2020-11-27,0.012776201054421198
2020-11-30,0.002302690223472237
2020-12-01,-0.0025298451541083677
2020-12-02,-0.013843803125382654
2020-12-03,-0.012789378245289511
2020-12-04,-0.026997475971088043
2020-12-07,-0.02641898871878018
2020-12-08,-0.02931364148463871
2020-12-09,-0.03433759668115678
2020-12-10,-0.03218025705548689
2020-12-11,-0.036801370139016076
2020-12-14,-0.0397383245580323
2020-12-15,-0.0359307485919098
2020-12-16,-0.043244423293624684
2020-12-17,-0.04107795162094234
2020-12-18,-0.043399023247091585
2020-12-21,-0.03811814793489778
2020-12-22,-0.04194286178712653
2020-12-23,-0.04377478185075176
2020-12-24,-0.04772151164231456
2020-12-25,-0.05156329949341575
2020-12-28,-0.060203356398767546
2020-12-29,-0.05565627043628579
2020-12-30,-0.058905472318786276
2020-12-31,-0.05872980490000525
2021-01-04,-0.07605934572032777
2021-01-05,-0.0980334411029612
2021-01-06,-0.10012331641761764
2021-01-07,-0.11138275921750071
2021-01-08,-0.1093401844179916
2021-01-11,-0.09510652906980764
2021-01-12,-0.10554171113794387
2021-01-13,-0.10526152845505533
2021-01-14,-0.09762538457705257
2021-01-15,-0.08301980670443641
2021-01-18,-0.08837881299238629
2021-01-19,-0.07153895900389687
2021-01-20,-0.08917848458893454
2021-01-21,-0.07771554827555108
2021-01-22,-0.08740190407467241
2021-01-25,-0.0965407630014913
2021-01-26,-0.08747680441125848
2021-01-27,-0.07616942002148235
2021-01-28,-0.07307439669127744
2021-01-29,-0.09176106650209122
2021-02-01,-0.10768619641269793
2021-02-02,-0.12882664539163696
2021-02-03,-0.11269566392814154
2021-02-04,-0.11659688933918036
2021-02-05,-0.10710150593532379
2021-02-08,-0.09480971415612627
2021-02-09,-0.08740404453961802
2021-02-10,-0.09523058779025129
2021-02-18,-0.05588093728981429
2021-02-19,-0.03703865501209941
2021-02-22,-0.013316091520532512
2021-02-23,-0.01566465123961461
2021-02-24,-0.0060773522992183596
2021-02-25,0.008766692476051809
2021-02-26,0.003958670278153165
2021-03-01,0.005256465802769832
2021-03-02,0.013537744515693381
2021-03-03,0.019257997698721656
2021-03-04,0.024061811530460046
2021-03-05,0.01091035640863531
2021-03-08,0.03378061618447814
2021-03-09,0.0320573520794047
2021-03-10,0.017936133878608
2021-03-11,0.015230267453910117
2021-03-12,0.01519848351485182
2021-03-15,0.0395242642277201
2021-03-16,0.03143711741319936
2021-03-17,0.021565901899793037
2021-03-18,0.03680534983923456
2021-03-19,0.04589091804108872
2021-03-22,0.05434693683591039
2021-03-23,0.04620127462151958
2021-03-24,0.05320779794414314
2021-03-25,0.054824373616632775
2021-03-26,0.05629469271363213
2021-03-29,0.06123618183771916
2021-03-30,0.05283730447743745
2021-03-31,0.046422963718298335
2021-04-01,0.04541895467463028
2021-04-02,0.028258989795150215
2021-04-06,0.04035238020673779
2021-04-07,0.03182442043322012
2021-04-08,0.03534402917101495
2021-04-09,0.055000108185226555
2021-04-12,0.0599302920912973
2021-04-13,0.06408826578090346
2021-04-14,0.05763476648569276
2021-04-15,0.06467029192348861
2021-04-16,0.08196507079874753
2021-04-19,0.06690362051107132
2021-04-20,0.06784193405216818
2021-04-21,0.08362417794258309
2021-04-22,0.0886975791214373
2021-04-23,0.08856750255562462
2021-04-26,0.06637274875087792
2021-04-27,0.062060243587299224
2021-04-28,0.0739261559907641
2021-04-29,0.09012590428891466
2021-04-30,0.06731374858081163
2021-05-06,0.07212327551570909
2021-05-07,0.07947625642150181
2021-05-10,0.06994983563732542
2021-05-11,0.09100373441161849
2021-05-12,0.08052782383410219
2021-05-13,0.07439140486580259
2021-05-14,0.06896180428152435
2021-05-17,0.05488458846720366
2021-05-18,0.060536927499503894
2021-05-19,0.057465216130571914
2021-05-20,0.05040137101841402
2021-05-21,0.04301378206558799
2021-05-24,0.04893395097873096
2021-05-25,0.051327179250501634
2021-05-26,0.05891540343870038
2021-05-27,0.04643089460770914
2021-05-28,0.047776734998219945
2021-05-31,0.04988568412369261
2021-06-01,0.04951158974372541
2021-06-02,0.05210263252307719
2021-06-03,0.07106630736108492
2021-06-04,0.06711370486896343
2021-06-07,0.04472169884894333
2021-06-08,0.01779732933721788
2021-06-09,-0.003778109777210369
2021-06-10,-0.009882190967041994
2021-06-11,0.01397531024825088
2021-06-15,0.015837463053547673
2021-06-16,0.01752643187963779
2021-06-17,0.017667420466114633
2021-06-18,0.019093951975278464
2021-06-21,0.015787409637800266
2021-06-22,0.022495064564380253
2021-06-23,0.031295478699131456
2021-06-24,0.025309813342299016
2021-06-25,0.022689323905983654
2021-06-28,0.018579426737391092
2021-06-29,0.017920990471858057
2021-06-30,0.01945985499503404
2021-07-01,0.031388771963163774
2021-07-02,0.03388810146368933
2021-07-05,0.019210422751349043
2021-07-06,0.02495983196225432
2021-07-07,0.008262917432718269
2021-07-08,0.0010437067032129993
2021-07-09,-0.010108851739381365
2021-07-12,-0.016729617531094674
2021-07-13,-0.0014490859807275921
2021-07-14,-0.003888658017848729
2021-07-15,-0.003034006630846152
2021-07-16,-0.000411650776523946
2021-07-19,-0.003330765653221472
2021-07-20,-0.006087440382513249
2021-07-21,-0.026142508773192914
2021-07-22,0.004948925346393651
2021-07-23,0.009582755361712662
2021-07-26,0.001237950750158305
2021-07-27,0.0026554878004775365
2021-07-28,-0.0014582013691715953
2021-07-29,-0.021550998180871785
2021-07-30,-0.01952600725641387
2021-08-02,-0.0258596927901462
2021-08-03,-0.016033811044507327
2021-08-04,-0.027579889889854728
2021-08-05,-0.026542918512872094
2021-08-06,-0.0226310191890976
2021-08-09,-0.014513566657076257
2021-08-10,-0.014515001037004127
2021-08-11,-0.01385571459263365
2021-08-12,-0.030439021312691376
2021-08-13,-0.030902369243776522
2021-08-16,-0.009382719835014769
2021-08-17,-0.001033157476399156
2021-08-18,-0.004952643861533844
2021-08-19,-0.003332186003040749
2021-08-20,-0.0018328508105280097
2021-08-23,-0.005086828437062343
2021-08-24,-0.012801243093534625
2021-08-25,-0.002618392007348063
2021-08-26,-0.004989790242993602
2021-08-27,-0.0011312295895888128
2021-08-30,-0.01199202700982991
2021-08-31,-0.004247381224321399
2021-09-01,0.015514285727788664
2021-09-02,0.01564362228242408
2021-09-03,0.01631352199710205
2021-09-06,0.0173254991604859
2021-09-07,0.011282087053075245
2021-09-08,0.02495526317272015
2021-09-09,0.00455779426368601
2021-09-10,0.002503441985926512
2021-09-13,0.009727139925814046
2021-09-14,0.006634271756851436
2021-09-15,-0.004759989792922622
2021-09-16,0.004457821066267489
2021-09-17,0.0021347946282250594
2021-09-22,-0.016239351898587575
2021-09-23,-0.02138795536224261
2021-09-24,-0.025678806874827403
2021-09-27,-0.014741506381498161
2021-09-28,-0.012989401973721849
2021-09-29,-0.0010865418809681273
2021-09-30,-0.0010779069945368834
2021-10-08,-0.005314339069695951
2021-10-11,-0.009820127478001194
2021-10-12,-0.0002059582257692089
2021-10-13,0.013776940474752919
2021-10-14,0.008945391633437558
2021-10-15,-0.003315819607710182
2021-10-18,-0.003164268530251726
2021-10-19,-0.005453456837994416
2021-10-20,-0.009473704346260579
2021-10-21,0.0025521554893595394
2021-10-22,-0.006915645925148341
2021-10-25,-0.012889963931796967
2021-10-26,-0.028834720182189584
2021-10-27,-0.04334169418383799
2021-10-28,-0.023857380043444752
2021-10-29,-0.011791620016960266
2021-11-01,-0.013142191669536847
2021-11-02,0.0007248452045714032
2021-11-03,0.003969998514841665
2021-11-04,0.0011776862116349984
2021-11-05,0.0013329266335587175
2021-11-08,-0.009350414073948543
2021-11-09,-0.016083789431175992
2021-11-10,-0.009260391935169303
2021-11-11,-0.0015148369695925645
2021-11-12,-0.00014985491571999077
2021-11-15,0.01202281535338915
2021-11-16,0.009258595628634576
2021-11-17,0.004884932308122848
2021-11-18,-0.00030028507321969156
2021-11-19,0.013453846571675886
2021-11-22,0.003137949564545925
2021-11-23,0.011503270870549087
2021-11-24,0.026431137377196823
2021-11-25,0.02154869354974978
2021-11-26,0.01764024446034651
2021-11-29,0.009756830061536235
2021-11-30,0.005061156782637209
2021-12-01,-0.014139731719723617
2021-12-02,0.003001254787943358
2021-12-03,0.011890967622843085
2021-12-06,0.01850263992311789
2021-12-07,0.018339120729093814
2021-12-08,0.037902561680259295
2021-12-09,0.028102268855866683
2021-12-10,0.0442879097159672
2021-12-13,0.04679015792472632
2021-12-14,0.04180983485446668
2021-12-15,0.009455543625085314
2021-12-16,0.010344502088197746
2021-12-17,0.019100722787436547
2021-12-20,0.014642567998276831
2021-12-21,0.009633706070654516
2021-12-22,0.005667186515454142
2021-12-23,0.008737316087377364
2021-12-24,0.009649366636512433
2021-12-27,0.010819865021289746
2021-12-28,0.009071390307865815
2021-12-29,0.006681342213148117
2021-12-30,-0.0011202408124948576
2021-12-31,0.006528090873530068
2022-01-04,0.006801634442255303
2022-01-05,0.014679900382464958
2022-01-06,-0.002424794113956824
2022-01-07,0.019323677563367156
2022-01-10,0.022546278739999315
2022-01-11,0.01972476656114716
2022-01-12,0.02612888567049322
2022-01-13,0.02702701019013516
2022-01-14,0.03182343761539211
2022-01-17,0.017140553408653142
2022-01-18,0.019568541060875383
2022-01-19,0.021154949733786427
2022-01-20,0.033823407438020536
2022-01-21,0.020088476518285603
2022-01-24,0.018454900731535856
2022-01-25,0.014313713541455053
2022-01-26,0.007109047351967879
2022-01-27,-0.003919967222987403
2022-01-28,0.01348253820319767
2022-02-07,0.030715750272188314
2022-02-08,0.03941490790089987
2022-02-09,0.036096572000018604
2022-02-10,0.04121747760396327
2022-02-11,0.03755470450982765
2022-02-14,0.034008388630479905
2022-02-15,0.030098879002371404
2022-02-16,0.04004747962358923
2022-02-17,0.048909964675981535
2022-02-18,0.046212679786566124
2022-02-21,0.04377130347572897
2022-02-22,0.043865746872963574
2022-02-23,0.04005783157264395
2022-02-24,0.033230647273346695
2022-02-25,0.02983984769972005
2022-02-28,0.026342658705148708
2022-03-01,0.02785287395650149
2022-03-02,0.02188232449406345
2022-03-03,0.025877836778619517
2022-03-04,0.024431570891979587
2022-03-07,0.012505139172282034
2022-03-08,-0.0034111413030232032
2022-03-09,-0.018146412024097835
2022-03-10,-0.012024366189533897
2022-03-11,-0.008249465226177706
2022-03-14,-0.018936191664787983
2022-03-15,-0.04319119198381042
2022-03-16,-0.024027308096032377
2022-03-17,0.008010272167807897
2022-03-18,0.005483090438707617
2022-03-21,0.004399709454323554
2022-03-22,0.005761466846793637
2022-03-23,0.024260399349017477
2022-03-24,0.013260655114372955
2022-03-25,0.01787615914900108
2022-03-28,0.00997292527387117
2022-03-29,0.008469871840774551
2022-03-30,0.009067341668954232
2022-03-31,0.017362777992170293
2022-04-01,0.017041363419044202
2022-04-06,0.02166143740175462
2022-04-07,0.018789400619892548
2022-04-08,0.007438372608245689
2022-04-11,0.0008772540332636775
2022-04-12,0.009299431037399705
2022-04-13,0.006323272336400655
2022-04-14,0.005331430120346148
2022-04-15,0.005918130396497405
2022-04-18,0.009942854227424837
2022-04-19,-0.007083885135358223
2022-04-20,0.0016261482453751724
2022-04-21,-0.006881923593510281
2022-04-22,-0.016317446314390277
2022-04-25,-0.012859196332485417
2022-04-26,0.012853388844195679
2022-04-27,0.013718146979485632
2022-04-28,0.018699659398545065
2022-04-29,0.022855871609282347
2022-05-05,0.03476714175291449
2022-05-06,0.0237678655600016
2022-05-09,0.02140173915185138
2022-05-10,0.017074898586301526
2022-05-11,0.017925590410189596
2022-05-12,0.010804561039219882
2022-05-13,0.023454913116889818
2022-05-16,0.03331808724053628
2022-05-17,0.040923462669733617
2022-05-18,0.03249715867824465
2022-05-19,0.024970470569530556
2022-05-20,0.02490346620524435
2022-05-23,0.025249167772792416
2022-05-24,0.02844980209594475
2022-05-25,0.030312062402983307
2022-05-26,0.03100625615825863
2022-05-27,0.04070789347501852
2022-05-30,0.04945699999783727
2022-05-31,0.03682919897603354
2022-06-01,0.03333022450320029
2022-06-02,0.031243323207743774
2022-06-06,0.02778372219878173
2022-06-07,0.0249683109538944
2022-06-08,0.02186886854235802
2022-06-09,0.031477491890433015
2022-06-10,0.02138225370495062
2022-06-13,0.015230815536347664
2022-06-14,0.024226084206598747
2022-06-15,0.03749260605589519
2022-06-16,0.038397522692534235
2022-06-17,0.025620018558391022
2022-06-20,0.02852884129209391
2022-06-21,0.04101192804449945
2022-06-22,0.023360361946292037
2022-06-23,0.00906055018556702
2022-06-24,0.01795515509603693
2022-06-27,0.023174210182980562
2022-06-28,0.013625800941292315
2022-06-29,0.029854723579648065
2022-06-30,0.022638890621757266
2022-07-01,0.01052114966325346
2022-07-04,0.0005720806118969801
2022-07-05,-0.012291679571369549
2022-07-06,-0.010436801312633887
2022-07-07,-0.011732059949396953
2022-07-08,-0.01916722566659332
2022-07-11,-0.010064081312867443
2022-07-12,-0.010141575247548967
2022-07-13,-0.01397098122229154
2022-07-14,-0.02456954311165252
2022-07-15,-0.026894707383463834
2022-07-18,-0.011701147102664983
2022-07-19,-0.003742082169224517
2022-07-20,0.005155214289008753
2022-07-21,-0.001167109742921002
2022-07-22,0.00981087149723757
2022-07-25,0.015792578530811965
2022-07-26,0.014589987109575417
2022-07-27,-0.003961699891306056
2022-07-28,-0.006586241914206231
2022-07-29,-0.0035538770222338784
2022-08-01,-0.017435585651597876
2022-08-02,-0.006800441376487026
2022-08-03,0.00044771757330794304
2022-08-04,0.0024679003291664947
2022-08-05,0.0005582475334684339
2022-08-08,0.0011047125459648782
2022-08-09,-0.008008838469810875
2022-08-10,-0.021045726181454255
2022-08-11,-0.025113411391413265
2022-08-12,-0.028377681532818423
2022-08-15,-0.040215101370620995
2022-08-16,-0.04529059305899052
2022-08-17,-0.04873931717607627
2022-08-18,-0.06566368299666495
2022-08-19,-0.04771108730162741
2022-08-22,-0.054660505308148775
2022-08-23,-0.05822634134762591
2022-08-24,-0.05522952861858152
2022-08-25,-0.05156321422518186
2022-08-26,-0.052324248892816
2022-08-29,-0.05514619187018939
2022-08-30,-0.04946580188893669
2022-08-31,-0.04134112132788527
2022-09-01,-0.04451786775091237
2022-09-02,-0.05733828592681887
2022-09-05,-0.05608575649914305
2022-09-06,-0.05785923712294723
2022-09-07,-0.07322190570067327
2022-09-08,-0.07131967776909307
2022-09-09,-0.06120991516707022
2022-09-13,-0.06217328512229469
2022-09-14,-0.05265634974768898
2022-09-15,-0.04888685167438878
2022-09-16,-0.06095867697988041
2022-09-19,-0.05842849890684906
2022-09-20,-0.05894034800540838
2022-09-21,-0.06067089091017401
2022-09-22,-0.0872123115240809
2022-09-23,-0.09965185202896615
2022-09-26,-0.09271978474049376
2022-09-27,-0.07368419844113228
2022-09-28,-0.08771667589778204
2022-09-29,-0.08491686452551378
2022-09-30,-0.0878755729215569
2022-10-10,-0.10154161490694777
2022-10-11,-0.1220203996318446
2022-10-12,-0.11705615366721807
2022-10-13,-0.10149503833576053
2022-10-14,-0.09593958742370352
2022-10-17,-0.10018154718670064
2022-10-18,-0.08548408298852377
2022-10-19,-0.08179464395917047
2022-10-20,-0.07414812965965889
2022-10-21,-0.08884569061395237
2022-10-24,-0.09205601214459985
2022-10-25,-0.09593064672157614
2022-10-26,-0.09594266337718574
2022-10-27,-0.08502792376203236
2022-10-28,-0.08941223146872926
2022-10-31,-0.08224688127692348
2022-11-01,-0.07013226002616386
2022-11-02,-0.05757453660198192
2022-11-03,-0.05672195301005856
2022-11-04,-0.04373310348996147
2022-11-07,-0.04292895195307863
2022-11-08,-0.0371746864767481
2022-11-09,-0.025554897492567702
2022-11-10,-0.039990621043046404
2022-11-11,-0.03074986370954505
2022-11-14,-0.0326941551319588
2022-11-15,-0.03143927728018912
2022-11-16,-0.02866490158374979
2022-11-17,-0.019088555614538028
2022-11-18,-0.01932658584803957
2022-11-21,-0.022497323575142635
2022-11-22,-0.013992657355263421
2022-11-23,-0.011218502192667797
2022-11-24,-0.017020211572631803
2022-11-25,-0.013760049033476503
2022-11-28,-0.01629569129448795
2022-11-29,-0.020175857667512835
2022-11-30,-0.02331699689602644
2022-12-01,-0.012518971549202985
2022-12-02,-0.010914428909004348
2022-12-05,-0.015882624204570157
2022-12-06,-0.015994314316483987
2022-12-07,-0.021004111203361063
2022-12-08,-0.023354584488675913
2022-12-09,-0.024235042921303178
2022-12-12,-0.02329288520008066
2022-12-13,-0.02667057633234059
2022-12-14,-0.024197251880008763
2022-12-15,-0.017319839663443963
2022-12-16,-0.02439650292672317
2022-12-19,-0.02864155855386625
2022-12-20,-0.03521785738527348
2022-12-21,-0.03451687445763533
2022-12-22,-0.044908607426686536
2022-12-23,-0.04804558077587233
2022-12-26,-0.041049331129725045
2022-12-27,-0.03252248277547118
2022-12-28,-0.03883131154164756
2022-12-29,-0.04199568611641537
2022-12-30,-0.04300074705459565
2023-01-03,-0.0467092411902217
2023-01-04,-0.05780190014942935
2023-01-05,-0.06079740903685878
2023-01-06,-0.05346829809822657
2023-01-09,-0.05388867882960863
2023-01-10,-0.06620424682078423
2023-01-11,-0.06354159301877083
2023-01-12,-0.0615571987364301
2023-01-13,-0.06932713948307616
2023-01-16,-0.06085171156222132
2023-01-17,-0.06342709582200026
2023-01-18,-0.06843549573793585
2023-01-19,-0.05507863787053409
2023-01-20,-0.05275856364008109
2023-01-30,-0.06387494755143903
2023-01-31,-0.056093377213092876
2023-02-01,-0.04334636439301957
2023-02-02,-0.042301280997295
2023-02-03,-0.0487337631585167
2023-02-06,-0.03625490475709229
2023-02-07,-0.037972296389935135
2023-02-08,-0.029076273581512272
2023-02-09,-0.023753885082248932
2023-02-10,-0.014860620690080532
2023-02-13,-0.014575694109145925
2023-02-14,-0.015150660460162804
2023-02-15,-0.01685437382868838
2023-02-16,-0.026569470840408185
2023-02-17,-0.004880573327850222
2023-02-20,0.007839959750419642
2023-02-21,0.007277366557785529
2023-02-22,0.000690527336152446
2023-02-23,0.004367949751024124
2023-02-24,0.01669956829158635
2023-02-27,0.028529200685160568
2023-02-28,0.023431194627437847
2023-03-01,0.02619176621939478
2023-03-02,0.03738569040771496
2023-03-03,0.05572331771189362
2023-03-06,0.05094648936977212
2023-03-07,0.061901714858735635
2023-03-08,0.0561339189263201
2023-03-09,0.04691494699884589
2023-03-10,0.05110833740751927
2023-03-13,0.06539407676863922
2023-03-14,0.044267675089198745
2023-03-15,0.048399005367381315
2023-03-16,0.052872874752147865
2023-03-17,0.04238076957073051
2023-03-20,0.036956071010701634
2023-03-21,0.04265817024040904
2023-03-22,0.045312124498063225
2023-03-23,0.03762558783206445
2023-03-24,0.032162231103097676
2023-03-27,0.034725280032245225
2023-03-28,0.03195399956225559
2023-03-29,0.03137874479971219
2023-03-30,0.03178326813252083
2023-03-31,0.01878782382651965
2023-04-03,0.001940825827693407
2023-04-04,-0.006744523374048406
2023-04-06,-0.0017367786439493257
2023-04-07,-0.0072382160640750565
2023-04-10,0.0035641866652227072
2023-04-11,-0.0033759276392785822
2023-04-12,-0.030858185366088232
2023-04-13,-0.02027921241265331
2023-04-14,-0.012450750498128826
2023-04-17,0.0003921073168590694
2023-04-18,-0.003170480742079436
2023-04-19,-0.008953687040622924
2023-04-20,-0.03488406247551092
2023-04-21,-0.029730898194997874
2023-04-24,-0.03511873689088823
2023-04-25,-0.04149223469061651
2023-04-26,-0.034328051576366286
2023-04-27,-0.03723762630768382
2023-04-28,-0.04373005649765036
2023-05-04,-0.05087499556697052
2023-05-05,-0.041315429962994525
2023-05-08,-0.04109922510170308
2023-05-09,-0.04280326396431661
2023-05-10,-0.030190931425589315
2023-05-11,-0.026420640774968935
2023-05-12,-0.016778804987887006
2023-05-15,-0.016701674452364625
2023-05-16,-0.007317036783263799
2023-05-17,-0.013332861259624938
2023-05-18,-0.014498212785956538
2023-05-19,-0.0059352272604444554
2023-05-22,0.00565770865053224
2023-05-23,0.006216105975799976
2023-05-24,0.009538788690753194
2023-05-25,0.007085406204315199
2023-05-26,0.005232507182571788
2023-05-29,-0.005204745217355554
2023-05-30,-0.015246475936615947
2023-05-31,-0.02449760672747542
2023-06-01,-0.03084778438858413
2023-06-02,-0.007565224768606459
2023-06-05,-0.009436123886220046
2023-06-06,-0.01420123409997257
2023-06-07,-0.013292789299209707
2023-06-08,-0.014140419827887989
2023-06-09,-0.022604277478868423
2023-06-12,-0.0186791576323014
2023-06-13,-0.029253640965090498
2023-06-14,-0.03163798433268351
2023-06-15,-0.023155023815535927
2023-06-16,-0.026244289556557193
2023-06-19,-0.03569548189376057
2023-06-20,-0.03954248530660165
2023-06-21,-0.041659894005826224
2023-06-26,-0.048843161562530144
2023-06-27,-0.03920400166208263
2023-06-28,-0.03879272498614038
2023-06-29,-0.040923307879636904
2023-06-30,-0.03375698050903131
2023-07-03,-0.026748852949990208
2023-07-04,-0.025538341844271728
2023-07-05,-0.03180605257537749
2023-07-06,-0.03597344696742526
2023-07-07,-0.02520801083315217
2023-07-10,-0.019929308851649778
2023-07-11,-0.01934107003935017
2023-07-12,-0.015203456738330005
2023-07-13,-0.006984449436529587
2023-07-14,-0.011227467276561376
2023-07-17,-0.02346433240381684
2023-07-18,-0.011890523259200175
2023-07-19,-0.005322522992122061
2023-07-20,-0.006775808378923304
2023-07-21,-0.0006430483352709015
2023-07-24,-0.005121283991501607
2023-07-25,0.002224552278606101
2023-07-26,0.011143213104908511
2023-07-27,0.00702024050581368
2023-07-28,0.008528300235874642
2023-07-31,0.00984990571531294
2023-08-01,0.012762175404446671
2023-08-02,0.015749316309841943
2023-08-03,0.01803262929298695
2023-08-04,0.012036920822799002
2023-08-07,0.013888023808909362
2023-08-08,0.012026601016053726
2023-08-09,0.022539850083692824
2023-08-10,0.018156407308487783
2023-08-11,0.013401897716399241
2023-08-14,0.01773439558151127
2023-08-15,0.008548176754469769
2023-08-16,0.01171013956792235
2023-08-17,0.013968171379867812
2023-08-18,0.011015383825499388
2023-08-21,0.008284215708563606
2023-08-22,-0.0009335369973918137
2023-08-23,-0.0049141693213405595
2023-08-24,-0.0007125396580277762
2023-08-25,0.005313242326809478
2023-08-28,0.0028685219038578173
2023-08-29,-0.002272692801439831
2023-08-30,-0.005177204635633308
2023-08-31,0.0033668837519614525
2023-09-01,0.009237507043675944
2023-09-04,0.010908366926537377
2023-09-05,0.00979507342474973
2023-09-06,0.00365749594658607
2023-09-07,0.009896857290707065
2023-09-08,0.008742022556663155
2023-09-11,0.009540582480821784
2023-09-12,0.014151013946859574
2023-09-13,0.020626203753385974
2023-09-14,0.003238541370743725
2023-09-15,0.01632123720141685
2023-09-18,0.022548704509350113
2023-09-19,0.014752173677322032
2023-09-20,0.016634250420960478
2023-09-21,0.01887827601432611
2023-09-22,0.017132527617138474
2023-09-25,0.01696910249991005
2023-09-26,0.013596894533934006
2023-09-27,0.013887705722061529
2023-09-28,0.014238559608551825
2023-10-09,0.00983178731498377
2023-10-10,0.004960809526183989
2023-10-11,0.00582801450244521
2023-10-12,0.004402891614896501
2023-10-13,0.003375023358565696
2023-10-16,0.001029442370214198
2023-10-17,-0.0018908106444667505
2023-10-18,0.0009328898879722297
2023-10-19,-0.00636774172153335
2023-10-20,0.004620414006094704
2023-10-23,0.0037640920247454523
2023-10-24,0.010618190368768425
2023-10-25,0.013192727760521342
2023-10-26,0.02054733026670895
2023-10-27,0.02241025216177324
2023-10-30,0.0028895189849630076
2023-10-31,-0.00019187468804622576
2023-11-01,-0.010956258477248619
2023-11-02,1.3370968929712901e-05
2023-11-03,-0.009311461826327416
2023-11-06,-0.0200178704869389
2023-11-07,-0.025351465603265594
2023-11-08,-0.03997630821807582
2023-11-09,-0.05252847047269475
2023-11-10,-0.05647455149021546
2023-11-13,-0.04970376979903715
2023-11-14,-0.05327843871027598
2023-11-15,-0.05116956027875386
2023-11-16,-0.04871861732221876
2023-11-17,-0.055070977256559954
2023-11-20,-0.0516124137134398
2023-11-21,-0.03931931485522877
2023-11-22,-0.04149718930926536
2023-11-23,-0.03681691972951019
2023-11-24,-0.016817894060150322
2023-11-27,-0.029909887179144754
2023-11-28,-0.027503815391674565
2023-11-29,-0.02641846040125107
2023-11-30,-0.01856394921903951
2023-12-01,-0.02619666490619707
2023-12-04,-0.03705526589359476
2023-12-05,-0.04498075103127431
2023-12-06,-0.026417265522785643
2023-12-07,-0.03516825980446442
2023-12-08,-0.03458137909310603
2023-12-11,-0.03807120737660142
2023-12-12,-0.033952875112337515
2023-12-13,-0.022037047514919045
2023-12-14,-0.02482132844229367
2023-12-15,-0.02495904484999862
2023-12-18,-0.0153722361911331
2023-12-19,-0.014325910173541796
2023-12-20,0.002894451728691655
2023-12-21,-0.0025622335255073396
2023-12-22,-0.0033337673508530077
2023-12-25,-0.006160903206234202
2023-12-26,0.002546764704669295
2023-12-27,-0.00791855567484558
2023-12-28,-0.0065395644890595545
2023-12-29,-0.023361272218233038
2024-01-02,-0.02261497829221036
2024-01-03,-0.022143776644323945
2024-01-04,-0.018928350672243174
2024-01-05,-0.017914540461857944
2024-01-08,-0.024414358504606447
2024-01-09,-0.020229768833228072
2024-01-10,-0.021630060492152527
2024-01-11,-0.032114589096826046
2024-01-12,-0.01536603596780494
2024-01-15,-0.02127148834527996
2024-01-16,-0.033134633220030664
2024-01-17,-0.03835681526610974
2024-01-18,-0.03410540367433686
2024-01-19,-0.03181237718676936
2024-01-22,-0.03854860814382616
2024-01-23,-0.03523592152482202
2024-01-24,-0.026279344944957053
2024-01-25,-0.021745582186145647
2024-01-26,-0.049818800399912294
2024-01-29,-0.04826733371189708
2024-01-30,-0.05428371675233268
2024-01-31,-0.05691102170018504
2024-02-01,-0.041589178038389574
2024-02-02,-0.04348771889357758
2024-02-05,-0.027426147781439453
2024-02-06,-0.023093325386932442
2024-02-07,-0.03440089633398437
2024-02-08,-0.049020412706710856
2024-02-19,-0.054912899587405306
2024-02-20,-0.052256362352837066
2024-02-21,-0.03435136811352486
2024-02-22,-0.04391818067273369
2024-02-23,-0.038816380164285555
2024-02-26,-0.04065117471492221
2024-02-27,-0.05468006123659978
2024-02-28,-0.04617805231470703
2024-02-29,-0.04738098666468969
2024-03-01,-0.05017622550140143
2024-03-04,-0.04944713869355256
2024-03-05,-0.05160878040712684
2024-03-06,-0.05231685815438945
2024-03-07,-0.05017221560668349
2024-03-08,-0.057198752032109626
2024-03-11,-0.04667357882482765
2024-03-12,-0.02922470962819088
2024-03-13,-0.021377691919301594
2024-03-14,-0.02217283932198813
2024-03-15,-0.024530184834302395
2024-03-18,-0.02376037265898394
2024-03-19,-0.018656378328265402
2024-03-20,-0.013744279097912305
2024-03-21,-0.012672946323273163
2024-03-22,-0.019188832430121365
2024-03-25,-0.03186048499982025
2024-03-26,-0.017448000651271212
2024-03-27,-0.009323692932364205
2024-03-28,-0.018232433154757425
2024-03-29,-0.013111932659190098
2024-04-01,-0.015996677358242596
2024-04-02,-0.015303635278985369
2024-04-03,-0.016001584164155026
2024-04-08,-0.016846682751166565
2024-04-09,-0.016764827531832654
2024-04-10,-0.010075196031553674
2024-04-11,-0.016668380128636508
2024-04-12,-0.022530380217402737
2024-04-15,-0.03364693671980866
2024-04-16,-0.021946660383046896
2024-04-17,-0.02568455598114962
2024-04-18,-0.03471822084083367
2024-04-19,-0.03751954054156153
2024-04-22,-0.01877028694038545
2024-04-23,-0.007140120982733689
2024-04-24,-0.0029146523924991133
2024-04-25,0.0041063751177411074
2024-04-26,0.00565296546902546
2024-04-29,0.011063425722865693
2024-04-30,0.020057623225743955
2024-05-06,0.029516671671126586
2024-05-07,0.02159769340388664
2024-05-08,0.02525627017540131
2024-05-09,0.01739175320762064
2024-05-10,0.01002981128240514
2024-05-13,0.014651145068917418
2024-05-14,0.00883224580532914
2024-05-15,0.004530497145574047
2024-05-16,0.006673184482544392
2024-05-17,0.0032142330008684272
2024-05-20,-0.0027622045885922625
2024-05-21,-0.005495980964271299
2024-05-22,0.0026646885817673827
2024-05-23,0.008828198392463016
2024-05-24,0.01599132547081289
2024-05-27,0.014671577588747473
2024-05-28,0.01839797414576242
2024-05-29,0.020432449825781684
2024-05-30,0.02757085388545389
2024-05-31,0.030972630306066194
2024-06-03,0.03230473731804974
2024-06-04,0.037166147178208986
2024-06-05,0.031359120782124716
2024-06-06,0.023498232815523892
2024-06-07,0.021322013422399227
2024-06-11,0.01697319783624905
2024-06-12,0.012098324795718554
2024-06-13,0.008085555487422319
2024-06-14,0.011614484117109608
2024-06-17,0.011418051014398134
2024-06-18,0.004622449855742103
2024-06-19,0.0013570575304440585
2024-06-20,-1.001284655836876e-05
2024-06-21,-0.002709837803849355
2024-06-24,-0.003908821104399177
2024-06-25,-0.008724142576012485
2024-06-26,-0.009334759784007211
2024-06-27,-0.009805712172934168
2024-06-28,-0.017178549852970723
2024-07-01,-0.02503810578397113
2024-07-02,-0.03681537713237691
2024-07-03,-0.04536879410757893
2024-07-04,-0.06006176177595182
2024-07-05,-0.08951833551018265
2024-07-08,-0.04773776633293142
2024-07-09,-0.06474559793640612
2024-07-10,-0.064886416643108
2024-07-11,-0.0500369853823221
2024-07-12,-0.034929349974668414
2024-07-15,-0.03834794920203341
2024-07-16,-0.042803912931118446
2024-07-17,-0.0547613263356391
2024-07-18,-0.049584321768611786
2024-07-19,-0.04698444292832789
2024-07-22,-0.057829044796198784
2024-07-23,-0.04736719755172665
2024-07-24,-0.0655946525154302
2024-07-25,-0.06754275414504207
2024-07-26,-0.06250393897098175
2024-07-29,-0.07234133032962912
2024-07-30,-0.07858780154366163
2024-07-31,-0.05926283190485185
2024-08-01,-0.07725125318291524
2024-08-02,-0.08477006360175063
2024-08-05,-0.05921294484826267
2024-08-06,-0.05917397372956873
2024-08-07,-0.0724492935378796
2024-08-08,-0.0717809862856083
2024-08-09,-0.061425190038390004
2024-08-12,-0.08032277819698005
2024-08-13,-0.08265342403281353
2024-08-14,-0.08213745481207285
2024-08-15,-0.0724065385484168
2024-08-16,-0.0852032152376235
2024-08-19,-0.07791973259864046
2024-08-20,-0.10271268248203586
2024-08-21,-0.08741688696615532
2024-08-22,-0.07738755102274236
2024-08-23,-0.07859626830323269
2024-08-26,-0.07996332458707961
2024-08-27,-0.08113389366247464
2024-08-28,-0.0921358685819037
2024-08-29,-0.06635404568271855
2024-08-30,-0.04350278296809412
2024-09-02,-0.03818106832893886
2024-09-03,-0.03431077089422749
2024-09-04,-0.03600822406531093
2024-09-05,-0.01086408347117801
2024-09-06,-0.020304582869791338
2024-09-09,-0.020774802868636366
2024-09-10,-0.015519116930936439
2024-09-11,-0.028425623253419408
2024-09-12,-0.027568986823344327
2024-09-13,-0.03217804908669314
2024-09-18,-0.031701531968583246
2024-09-19,-0.028758741108266234
2024-09-20,-0.03347224771975427
2024-09-23,-0.04443695244095844
2024-09-24,-0.055637356699932944
2024-09-25,-0.04067914885340837
2024-09-26,-0.033826144571490094
2024-09-27,0.00426994946192201
2024-09-30,0.008643526918296581
2024-10-08,-0.013826555629030915
2024-10-09,0.0015608830823796577
2024-10-10,0.005837328099375337
2024-10-11,-0.0017887616430512406
2024-10-14,4.193634789489281e-05
2024-10-15,0.0031294452334939184
2024-10-16,-0.006579379832386643
2024-10-17,0.006799640299428925
2024-10-18,-0.011567478006759852
2024-10-21,-0.008010058954962858
2024-10-22,-0.007030052239510892
2024-10-23,-0.006444527449835702
2024-10-24,0.0009241541875753892
2024-10-25,-0.017152379010015175
2024-10-28,-0.011733211357875846
2024-10-29,0.006015490610042345
2024-10-30,-0.01149631757130228
2024-10-31,0.0008749525281759422
2024-11-01,-0.01122296653885259
2024-11-04,-0.01955352791317922
2024-11-05,-0.03283432763226039
2024-11-06,-0.024830280140866162
2024-11-07,-0.0358369292301856
2024-11-08,-0.03293369240732029
2024-11-11,-0.04528851483889665
2024-11-12,-0.0392660573113372
2024-11-13,-0.046743611139081515
2024-11-14,-0.038681152355748746
2024-11-15,-0.03421252219539775
2024-11-18,-0.01356916021242116
2024-11-19,-0.02260013659055179
2024-11-20,-0.01498553948840848
2024-11-21,-0.015106814603274649
2024-11-22,-0.004830434186611651
2024-11-25,-0.004768797618202925
2024-11-26,-0.004431298378966608
2024-11-27,-0.015472381856301672
2024-11-28,-0.01278852742370136
2024-11-29,-0.013394342260145957
2024-12-02,-0.018329278211136613
2024-12-03,-0.00920736260042243
2024-12-04,-0.021102087119065506
2024-12-05,-0.031573059207737036
2024-12-06,-0.0286557897492798
2024-12-09,-0.019351361632784506
2024-12-10,-0.0075351838945780965
2024-12-11,-0.009046546503929949
2024-12-12,-0.010423114156228569
2024-12-13,-0.012020078885388676
2024-12-16,-0.007622271442232993
2024-12-17,-0.0025561877166955377
2024-12-18,-0.0069973156593620515
2024-12-19,-0.01608939552273872
2024-12-20,-0.023178870026811384
2024-12-23,-0.021765112282663736
2024-12-24,-0.028626616233187692
2024-12-25,-0.032970139972952395
2024-12-26,-0.046981480799735284
2024-12-27,-0.05079769696388389
2024-12-30,-0.05155501329210826
2024-12-31,-0.04784880537852399
2025-01-02,-0.04623063705299694
2025-01-03,-0.03039032064176818
2025-01-06,-0.027767281899554068
2025-01-07,-0.046767207445709225
2025-01-08,-0.05102279302370715
2025-01-09,-0.054646707142345506
2025-01-10,-0.05137298406110064
2025-01-13,-0.05378382960481584
2025-01-14,-0.049758782027915234
2025-01-15,-0.044714033566385064
2025-01-16,-0.037451904026489735
2025-01-17,-0.03953624961964556
2025-01-20,-0.045739461674857505
2025-01-21,-0.056416908229277696
2025-01-22,-0.05189028683671341
2025-01-23,-0.05530541916943464
2025-01-24,-0.03222424596331034
2025-01-27,-0.02987535893585854
2025-02-05,-0.025800687744563733
2025-02-06,-0.0309001993707339
2025-02-07,-0.03066352565314176
2025-02-10,-0.0333277982595025
2025-02-11,-0.0285641551815759
2025-02-12,-0.042339029088170665
2025-02-13,-0.031127216411789078
2025-02-14,-0.04160774397789587
2025-02-17,-0.04734355854735763
2025-02-18,-0.04903004539635733
2025-02-19,-0.06035065622669574
2025-02-20,-0.0612441920998174
2025-02-21,-0.07488174095896376
2025-02-24,-0.0745564107067373
2025-02-25,-0.07743806315485587
2025-02-26,-0.07901297700600098
2025-02-27,-0.06687916886036442
2025-02-28,-0.034047609727457726
2025-03-03,-0.03683211814036516
2025-03-04,-0.04325684615812416
2025-03-05,-0.044807223217589065
2025-03-06,-0.04619257938031713
2025-03-07,-0.045592867303155434
2025-03-10,-0.034311037780685005
2025-03-11,-0.03142974884909334
2025-03-12,-0.035287684799704386
2025-03-13,-0.021903278691514236
2025-03-14,-0.03588163813226533
2025-03-17,-0.02735434764347781
2025-03-18,-0.03463550011244209
2025-03-19,-0.029079150160911345
2025-03-20,-0.023241947169876646
2025-03-21,-0.012745517971712243
2025-03-24,-0.006608269455837423
2025-03-25,0.012490904150626685
2025-03-26,0.02433389959349321
2025-03-27,0.02254870441352797
2025-03-28,0.024157466585508484
2025-03-31,0.028777772100791164
2025-04-01,0.027102657350069212
2025-04-02,0.018509873712842382
2025-04-03,0.02933981082543052
2025-04-07,0.05255523772443858
2025-04-08,0.07053692556988597
2025-04-09,0.05605158870000998
2025-04-10,0.04243276513946383
2025-04-11,0.03051160989730904
2025-04-14,0.033065484934551984
2025-04-15,0.033307247407194374
2025-04-16,0.05006622302233629
2025-04-17,0.049225891986772394
2025-04-18,0.04940461330330112
2025-04-21,0.04407894773681799
2025-04-22,0.03609454583750106
2025-04-23,0.019045433552422594
2025-04-24,0.03165935063269672
2025-04-25,0.02773909250753781
2025-04-28,0.03688812553764115
2025-04-29,0.04410539931128163
2025-04-30,0.03826643754183548
2025-05-06,0.027220202912463465
2025-05-07,0.04764000864274118
2025-05-08,0.04496363175524949
2025-05-09,0.05321837966396105
2025-05-12,0.0583550550490014
2025-05-13,0.065812003895829
2025-05-14,0.0555708973482828
2025-05-15,0.05811724088511584
2025-05-16,0.056514031879140156
2025-05-19,0.0505733219277717
2025-05-20,0.06382611967865093
2025-05-21,0.06293239516454685
2025-05-22,0.06084248573778937
2025-05-23,0.06783536396801065
2025-05-26,0.05279600243602847
2025-05-27,0.041293917372815736
2025-05-28,0.03593822759321552
2025-05-29,0.044359169651126296
2025-05-30,0.041814744121999314
2025-06-03,0.02460529431593242
2025-06-04,0.02818045498782687
2025-06-05,0.02835314642607814
2025-06-06,0.04327641308863686
2025-06-09,0.046538434820614816
2025-06-10,0.05319947308441619
2025-06-11,0.0654845902940098
2025-06-12,0.04381816743054852
2025-06-13,0.03768240244781351
2025-06-16,0.026703083886611856
2025-06-17,0.03487433719518959
2025-06-18,0.0423446941358748
2025-06-19,0.054333387805458266
2025-06-20,0.06190018961768204
2025-06-23,0.0569078088353788
2025-06-24,0.05873062498953002
2025-06-25,0.04582107546656272
2025-06-26,0.046250211723282225
2025-06-27,0.021614261459023176
2025-06-30,0.027767912185576643
2025-07-01,0.021339011921765044
2025-07-02,0.034624627470267566
2025-07-03,0.055073183706792816
2025-07-04,0.040139715947772575
2025-07-07,0.051082852648318494
2025-07-08,0.06676719051651073
2025-07-09,0.07245546273740533
2025-07-10,0.053650239208214934
2025-07-11,0.0567488821464191
2025-07-14,0.041891576092289703
2025-07-15,0.039973767074017424
2025-07-16,0.030956795573501283
2025-07-17,0.02612970512724183
2025-07-18,0.03265291972022029
2025-07-21,0.04241728992823032
2025-07-22,0.031181299976340324
2025-07-23,0.015837310199012994
2025-07-24,0.02461908316441669
2025-07-25,0.02033827304169175
2025-07-28,-0.004400528601911563
2025-07-29,-0.007707295244809703
2025-07-30,0.009814216620283561
2025-07-31,0.010200192694496402
2025-08-01,0.01050908115404764
2025-08-04,0.00312519533813016
2025-08-05,-0.0016292418826331229
2025-08-06,-0.006403928951290577
2025-08-07,-0.01283601707387419
2025-08-08,-0.009205020837454087
2025-08-11,-0.003792500574726576
2025-08-12,0.007401176750344851
2025-08-13,0.001764781286618139
2025-08-14,0.004863275622250515
2025-08-15,0.013710066006120639
2025-08-18,0.011842139878432995
2025-08-19,0.0132043885649904
2025-08-20,0.01220821675022845
2025-08-21,0.010386959720903484
2025-08-22,0.0016368704193477947
2025-08-25,0.005471979444148274
2025-08-26,0.022892608880171545
2025-08-27,0.016234290227993824
2025-08-28,-0.016770577794155986
2025-08-29,-0.013385687261704771
2025-09-01,-0.02850702787364043
2025-09-02,-0.010323143156097728
2025-09-03,0.00027037904449799324
2025-09-04,0.04381266536784402
2025-09-05,0.03608770924155853
2025-09-08,0.056225155923187844
2025-09-09,0.0638057462007424
2025-09-10,0.04742092938984122
2025-09-11,0.020487327632532408
2025-09-12,0.003084562107316398
2025-09-15,-0.004029683676789903
2025-09-16,0.013360759098269295
2025-09-17,0.0013135721958821133
2025-09-18,-0.005209921126204486
2025-09-19,0.011934718212911819
2025-09-22,-0.005000883402238712
2025-09-23,0.0037001392306500736
2025-09-24,-0.016340001361864722
2025-09-25,-0.023159997046367092
2025-09-26,-0.013144199278863476
2025-09-29,-0.0173147962748817
2025-09-30,-0.02729421502990842
2025-10-09,-0.005694549980420362
2025-10-10,0.026664814232454453
2025-10-13,0.031310593178781806
2025-10-14,0.0644022654728123
2025-10-15,0.06079296309654978
2025-10-16,0.08276063558602041
2025-10-17,0.0846807414707065
2025-10-20,0.09674282463767678
2025-10-21,0.07896714576197204
2025-10-22,0.09528711747702073
2025-10-23,0.09952424690666063
2025-10-24,0.05929718349482409
2025-10-27,0.06391493650060347
2025-10-28,0.05963394212063375
2025-10-29,0.057379555462317676
2025-10-30,0.0568709290309275
2025-10-31,0.08705442012244216
2025-11-03,0.09474435254341725
2025-11-04,0.08982198024317706
2025-11-05,0.08805032228022029
2025-11-06,0.05812013394157764
2025-11-07,0.08088268125652713
2025-11-10,0.0812766116304405
2025-11-11,0.07094629526310449
2025-11-12,0.07248479561796553
2025-11-13,0.07727665848388711
2025-11-14,0.08898541612442887
2025-11-17,0.08218665887578865
2025-11-18,0.09478397021271112
2025-11-19,0.09385934943783888
2025-11-20,0.09799908980761404
2025-11-21,0.1288468389111146
2025-11-24,0.14219240682685966
2025-11-25,0.12507105870732102
2025-11-26,0.0937653215802934
2025-11-27,0.0621588530268334
2025-11-28,0.05610091600159864
2025-12-01,0.07189544794024195
2025-12-02,0.0665358391614124
2025-12-03,0.05863171717357739
2025-12-04,0.07437163914280523
2025-12-05,0.06785610450923392
2025-12-08,0.045318922663104166
2025-12-09,0.03095266902938783
2025-12-10,0.03884818566015559
2025-12-11,0.024103964695878582
2025-12-12,0.030024433897609445
2025-12-15,0.03244022403958582
2025-12-16,0.04193693072154246
2025-12-17,0.02530364019990859
2025-12-18,0.036640818835635
2025-12-19,0.04148506550114288
2025-12-22,0.019740869368964607
2025-12-23,0.024828180471750266
2025-12-24,0.016137127868053405
2025-12-25,0.0072742122681463735
2025-12-26,0.023059199599402724
2025-12-29,-0.002363047577573288
2025-12-30,0.002464398513435738
2025-12-31,0.001788929550292806
2026-01-05,0.017108039233673298
2026-01-06,0.013336609797805968
2026-01-07,0.0187192680843561
2026-01-08,0.015290544649374606
2026-01-09,0.01535250901092676
2026-01-12,-0.013179181438076434
2026-01-13,0.012154147327302975
2026-01-14,0.015557861834735003
2026-01-15,0.019465832721715273
2026-01-16,0.006882059309407359
2026-01-19,0.023903124980982446
2026-01-20,0.028173293157074505
2026-01-21,0.008738596257809358
2026-01-22,0.02228383547098893
2026-01-23,0.002794425463235852
2026-01-26,0.012811630390173957
2026-01-27,0.01754441594846695
2026-01-28,0.04195102248055859
2026-01-29,0.06753149809871947
2026-01-30,0.06992475568243173
2026-02-02,0.1219655761796102
2026-02-03,0.09986677570037299
2026-02-04,0.1377916467794902
2026-02-05,0.15296659177928248
2026-02-06,0.14716787775793483
2026-02-09,0.14321700859601844
2026-02-10,0.1316721354860924
2026-02-11,0.14395435360922482
2026-02-12,0.10526044688514657
2026-02-13,0.12797066405021396
2026-02-24,0.1350322112936049
2026-02-25,0.12215459586032812
2026-02-26,0.10627679723875877
2026-02-27,0.11054499792723506
2026-03-02,0.07536649069847165
2026-03-03,0.0794449595016138
2026-03-04,0.08298805402777737
2026-03-05,0.10669091405889938
2026-03-06,0.10737896022253104
2026-03-09,0.1046979027894396
2026-03-10,0.0982230007275619
2026-03-11,0.11809008708107507
2026-03-12,0.12141844585451084
2026-03-13,0.1234426719484438
2026-03-16,0.1255113156338711
2026-03-17,0.17303867434579612
2026-03-18,0.1811381866548177
2026-03-19,0.2042513729115881
2026-03-20,0.23917071924531452
2026-03-23,0.2541858165908005
2026-03-24,0.2256941017522884
2026-03-25,0.257306338243515
2026-03-26,0.2960046159405864
