date,long_short
2015-03-05,-0.010138796251026122
2015-03-06,0.038336202871343844
2015-03-09,0.006589088966497236
2015-03-10,0.014684106459804835
2015-03-11,0.002905082277365051
2015-03-12,-0.013857330050019545
2015-03-13,0.00951243207618896
2015-03-16,0.013237771704981693
2015-03-17,0.010047671593786972
2015-03-18,0.016887070809403243
2015-03-19,0.030492349376231867
2015-03-20,0.004839828313405861
2015-03-23,-0.004302095745789727
2015-03-24,0.0034052967358220443
2015-03-25,0.019769544084434626
2015-03-26,0.008704555491907517
2015-03-27,0.0065309651235860855
2015-03-30,0.016863122503105593
2015-03-31,0.024492798177505964
2015-04-01,0.012671446988001739
2015-04-02,0.01738518364863248
2015-04-03,0.017413872193512044
2015-04-07,0.02413458387698466
2015-04-08,-0.0033685224603896106
2015-04-09,-0.00342775855091082
2015-04-10,0.024101922383203633
2015-04-13,0.026780867281053417
2015-04-14,0.01942938613681909
2015-04-15,0.013521837179395396
2015-04-16,0.017277736453417757
2015-04-17,0.0284240223472774
2015-04-20,0.03317977485444653
2015-04-21,0.03812538772290076
2015-04-22,0.040048988070758296
2015-04-23,0.0411378354404469
2015-04-24,0.04717723852772694
2015-04-27,0.039542970856665624
2015-04-28,0.029680938337995705
2015-04-29,0.024526226859702325
2015-04-30,0.03210758737066324
2015-05-04,0.027710906064582826
2015-05-05,0.04079937113847748
2015-05-06,0.033953611700241
2015-05-07,0.05498524265608626
2015-05-08,0.060790100715559126
2015-05-11,0.07281196168283836
2015-05-12,0.060484053020734715
2015-05-13,0.060273008324110304
2015-05-14,0.06636258975601339
2015-05-15,0.09626154627976657
2015-05-18,0.0750658812708121
2015-05-19,0.06365299823686797
2015-05-20,0.05848037136543576
2015-05-21,0.02533996621188793
2015-05-22,0.002471695681453001
2015-05-25,0.012392546382819246
2015-05-26,-0.018198026390533625
2015-05-27,-0.022845348956896598
2015-05-28,-0.03837549442330594
2015-05-29,-0.044528698419685805
2015-06-01,-0.041181922244563726
2015-06-02,-0.09775966945245013
2015-06-03,-0.11420452935935135
2015-06-04,-0.10729172734047887
2015-06-05,-0.12196066050744384
2015-06-08,-0.1397475018184624
2015-06-09,-0.12305195129881105
2015-06-10,-0.12479539182364413
2015-06-11,-0.10169044198822871
2015-06-12,-0.09246656129774626
2015-06-15,-0.07176341855024929
2015-06-16,-0.08244792371324686
2015-06-17,-0.08369305422811534
2015-06-18,-0.06114765281873344
2015-06-19,-0.036236562580696186
2015-06-23,-0.032049160066971435
2015-06-24,-0.022278165700461983
2015-06-25,-0.008944996225708449
2015-06-26,0.023895665303865023
2015-06-29,0.012425988538238494
2015-06-30,-0.03131938618959372
2015-07-01,0.0023821337844150484
2015-07-02,0.013027956304052568
2015-07-03,0.016243521145702624
2015-07-06,-0.01698500446430534
2015-07-07,0.033715128750462134
2015-07-08,0.04142018492223623
2015-07-09,0.014671101644392991
2015-07-10,-0.00286188813945696
2015-07-13,-0.007817950959917719
2015-07-14,-0.044911645102552154
2015-07-15,-0.015770392095000575
2015-07-16,-0.01822320798699799
2015-07-17,-0.030760346148629335
2015-07-20,-0.03499041380855731
2015-07-21,-0.04249214233088089
2015-07-22,-0.04019422533271509
2015-07-23,-0.040460396741142886
2015-07-24,-0.04782364183511188
2015-07-27,-0.028205683503322407
2015-07-28,-0.07330085015392612
2015-07-29,-0.06246795951179372
2015-07-30,-0.04423526224981597
2015-07-31,-0.039593091539145246
2015-08-03,-0.02186626889689837
2015-08-04,-0.044917457905465114
2015-08-05,-0.047849982453418524
2015-08-06,-0.03778186982097473
2015-08-07,-0.039963219961450025
2015-08-10,-0.05710289381821129
2015-08-11,-0.05767752292492036
2015-08-12,-0.051288873045986574
2015-08-13,-0.034620851919190704
2015-08-14,-0.05330079179070987
2015-08-17,-0.033632380884533256
2015-08-18,-0.044519499616876956
2015-08-19,-0.044816255932267665
2015-08-20,-0.036071926269524976
2015-08-21,-0.02139145647400685
2015-08-24,-0.009554752420496415
2015-08-25,0.021245837693801006
2015-08-26,0.02147552126719285
2015-08-27,0.009298065061979105
2015-08-28,0.013523308635904271
2015-08-31,0.007750688195654595
2015-09-01,0.011541435211941216
2015-09-02,0.018466683001270724
2015-09-07,0.007977883283111768
2015-09-08,0.017102057072940907
2015-09-09,0.012133444003826311
2015-09-10,0.011739764397909126
2015-09-11,0.009440539779234279
2015-09-14,0.03531935524483605
2015-09-15,0.05006336014731788
2015-09-16,0.018447396146715665
2015-09-17,0.03408322036495882
2015-09-18,0.03151769997411243
2015-09-21,0.023489281746166067
2015-09-22,0.02050875624350574
2015-09-23,0.010723629992031178
2015-09-24,0.0074287127900238975
2015-09-25,0.018489103845274496
2015-09-28,0.005084893582549099
2015-09-29,-0.0019368072008346393
2015-09-30,0.027833141149465446
2015-10-08,0.0327143548116853
2015-10-09,0.04646254722816674
2015-10-12,0.04319357339520247
2015-10-13,0.03893522157775439
2015-10-14,0.05552486757186104
2015-10-15,0.05182798720915328
2015-10-16,0.04851884102349914
2015-10-19,0.06053295303187915
2015-10-20,0.03847720211899314
2015-10-21,0.034371027454877315
2015-10-22,0.04390922389582899
2015-10-23,0.04234677316995589
2015-10-26,0.04018186431659339
2015-10-27,0.03567447721740803
2015-10-28,0.06308295708036481
2015-10-29,0.059129963799940524
2015-10-30,0.03365564023672209
2015-11-02,0.039326801439241374
2015-11-03,0.04139701564924206
2015-11-04,0.010608199395329703
2015-11-05,0.03260817662215962
2015-11-06,0.015080134808869192
2015-11-09,0.004530070240477427
2015-11-10,0.0021593333385396297
2015-11-11,-0.009570857225117128
2015-11-12,0.003631023400644768
2015-11-13,2.5905233623890744e-05
2015-11-16,0.0006528255362259813
2015-11-17,0.0160624845176299
2015-11-18,0.008820304276671454
2015-11-19,0.011956189625120192
2015-11-20,0.013931616030713044
2015-11-23,0.026450221877988813
2015-11-24,0.022362545539685127
2015-11-25,0.008554363344619464
2015-11-26,0.010855712513743438
2015-11-27,0.026336175646972635
2015-11-30,0.024207686835308675
2015-12-01,0.026155866423937787
2015-12-02,0.03310110757880772
2015-12-03,0.01447706560460906
2015-12-04,-0.014980581011868792
2015-12-07,0.02446853925149018
2015-12-08,-0.01231103694842644
2015-12-09,-0.003823081974314718
2015-12-10,0.0003127152990234257
2015-12-11,0.01687146375960672
2015-12-14,-0.0024468192683665124
2015-12-15,-0.009125983464676385
2015-12-16,-0.03699900379370068
2015-12-17,-0.02240360526950093
2015-12-18,-0.024824782458833947
2015-12-21,-0.03465232226156793
2015-12-22,-0.03501855105493987
2015-12-23,-0.015768158603379823
2015-12-24,-0.01565055408530787
2015-12-25,-0.012242388654214606
2015-12-28,-0.008680169391075104
2015-12-29,-0.025897194530001888
2015-12-30,-0.025627231419180774
2015-12-31,-0.038569159151481375
2016-01-04,-0.03055530164276589
2016-01-05,-0.03937232378305483
2016-01-06,-0.026208148793224903
2016-01-07,-0.021432439395999647
2016-01-08,-0.018312256896298465
2016-01-11,-0.01090779080289371
2016-01-12,-0.017443445540469116
2016-01-13,0.0020845252349046273
2016-01-14,-0.00782906091942042
2016-01-15,-0.006333724967115531
2016-01-18,-0.007821433619596729
2016-01-19,-0.015223822092729999
2016-01-20,-0.0188208447497591
2016-01-21,-0.045592095190945994
2016-01-22,-0.05100237595738904
2016-01-25,-0.060858082885450346
2016-01-26,-0.03671105403449193
2016-01-27,-0.031855876447607775
2016-01-28,-0.017127099630283422
2016-01-29,-0.02436182039881844
2016-02-01,-0.018049471001195715
2016-02-02,-0.022300792794617788
2016-02-03,-0.02713536939605981
2016-02-04,-0.025256282163578083
2016-02-05,-0.03591234369135613
2016-02-15,-0.03855228652623081
2016-02-16,-0.03495760798762963
2016-02-17,-0.03284144947111013
2016-02-18,-0.02546401173254649
2016-02-19,-0.021321465900324764
2016-02-22,-0.021336232846635387
2016-02-23,-0.021892446915465717
2016-02-24,-0.026315374443682513
2016-02-25,-0.008987242180427048
2016-02-26,-0.0016176694859987711
2016-02-29,0.010717694438645259
2016-03-01,0.006009682548404262
2016-03-02,0.012509497865392821
2016-03-03,-0.008282447500550918
2016-03-04,0.004794703438489777
2016-03-07,0.009408075111707461
2016-03-08,0.02331632240976256
2016-03-09,0.010716707933224351
2016-03-10,0.015839858646283726
2016-03-11,0.003983234582535147
2016-03-14,0.020002183530654444
2016-03-15,0.008581177973904591
2016-03-16,0.007857458165948718
2016-03-17,0.004725619330916281
2016-03-18,-0.001203628479480249
2016-03-21,-0.028429423747284865
2016-03-22,-0.03410354974051421
2016-03-23,-0.04420694258694278
2016-03-24,-0.04459952394361713
2016-03-25,-0.03996839276351433
2016-03-28,-0.021901364629346585
2016-03-29,-0.022145592235511338
2016-03-30,-0.03761535380284563
2016-03-31,-0.02757085189609773
2016-04-01,-0.007319623697306625
2016-04-05,-0.013126260322942063
2016-04-06,-0.007757276322836206
2016-04-07,0.00028698556431923546
2016-04-08,-0.011318192220300316
2016-04-11,-0.012928293472342065
2016-04-12,-0.017113707638361446
2016-04-13,-0.006210761935787262
2016-04-14,0.0035683845534864728
2016-04-15,0.009397187163697883
2016-04-18,-0.00020218460368878755
2016-04-19,0.015643963562917543
2016-04-20,0.022571461454299183
2016-04-21,0.026960401432611362
2016-04-22,0.02008875768588271
2016-04-25,0.006888291806097405
2016-04-26,-0.008041127293628238
2016-04-27,-0.00457651950728797
2016-04-28,-0.004495783974717615
2016-04-29,0.0012596422582745077
2016-05-03,-0.019941228129615327
2016-05-04,-0.020978979914296085
2016-05-05,-0.026946708773561062
2016-05-06,-0.014711757419477207
2016-05-09,-0.005405231430665729
2016-05-10,-0.017677620676100323
2016-05-11,-0.014195511042407061
2016-05-12,0.004862969172325447
2016-05-13,-0.01793258474449767
2016-05-16,-0.011964577266844242
2016-05-17,-0.006068833312294852
2016-05-18,-0.007611307556093627
2016-05-19,-0.013750695669834955
2016-05-20,-0.010569193523548393
2016-05-23,-0.012502210969626826
2016-05-24,-0.008652066093042709
2016-05-25,0.02249054332353656
2016-05-26,0.021744223511163157
2016-05-27,0.012905038360135054
2016-05-30,0.021039314310265532
2016-05-31,0.01917840848194122
2016-06-01,0.009803262421615153
2016-06-02,0.00677067568107096
2016-06-03,0.012090894010260513
2016-06-06,0.009171712225202898
2016-06-07,0.017930491142630622
2016-06-08,0.016001220268540197
2016-06-13,-0.007711379566638074
2016-06-14,-0.0021726660790361563
2016-06-15,-0.02050339490458107
2016-06-16,-0.01975158212910464
2016-06-17,-0.016574406556408183
2016-06-20,-0.010514336494256253
2016-06-21,-0.011908704109227126
2016-06-22,-0.010568162489897406
2016-06-23,-0.01474558577474639
2016-06-24,-0.026803828999370408
2016-06-27,-0.032835827202868165
2016-06-28,-0.035098320909972225
2016-06-29,-0.035838599598802964
2016-06-30,-0.03282395818137772
2016-07-01,-0.03293649739820269
2016-07-04,-0.03952462549454686
2016-07-05,-0.03258679502603628
2016-07-06,-0.032632032657033974
2016-07-07,-0.03363788439432293
2016-07-08,-0.04191808451620628
2016-07-11,-0.035274219461544166
2016-07-12,-0.023047822254703466
2016-07-13,-0.012070315069764345
2016-07-14,-0.018520525337066048
2016-07-15,-0.008694424320141034
2016-07-18,-0.007489591442466876
2016-07-19,-0.019422818466098113
2016-07-20,-0.022277380671016984
2016-07-21,-0.009608723227581072
2016-07-22,-0.008227957087592906
2016-07-25,-0.0201270241058856
2016-07-26,-0.019066621236792595
2016-07-27,-0.015016517925652506
2016-07-28,-0.015683222571620983
2016-07-29,-0.014203340193474495
2016-08-01,-0.008854159506535689
2016-08-02,-0.005480731415343457
2016-08-03,-0.004125047964307835
2016-08-04,-0.015940687246609086
2016-08-05,-0.009743700833636317
2016-08-08,-0.0013003870339403367
2016-08-09,-0.003919818968032413
2016-08-10,-0.004834061707055699
2016-08-11,-0.0038742014271737624
2016-08-12,-0.0066206680415758605
2016-08-15,-0.002024102748740257
2016-08-16,-0.005771484536925459
2016-08-17,0.008603456664436081
2016-08-18,-0.0021740592709699885
2016-08-19,-0.005161931118837226
2016-08-22,-0.008208093798332669
2016-08-23,-0.0062142727683063715
2016-08-24,-0.00825708698982833
2016-08-25,-0.002482477001891383
2016-08-26,-0.007978450798820627
2016-08-29,-0.0014476688524283476
2016-08-30,-0.00485029058199375
2016-08-31,-0.004223059680297101
2016-09-01,-0.020785162672283836
2016-09-02,-0.010574307304049888
2016-09-05,-0.016911679081233023
2016-09-06,-0.007584169720236264
2016-09-07,-0.007005105160227646
2016-09-08,-0.010618883857863389
2016-09-09,0.008799006082851417
2016-09-12,-0.0066661321955279185
2016-09-13,0.0003760832776415826
2016-09-14,-0.02118397257746412
2016-09-19,-0.024504424635132742
2016-09-20,-0.01671753754539742
2016-09-21,-0.01694316063261408
2016-09-22,-0.006813036488354709
2016-09-23,-0.01283218199048437
2016-09-26,-0.01398317888261804
2016-09-27,-0.004038160925744709
2016-09-28,-0.009256713220809232
2016-09-29,-0.007864502878520176
2016-09-30,-0.012226672577988585
2016-10-10,-0.0059632288165354565
2016-10-11,-0.011535679762288841
2016-10-12,0.003695470673708819
2016-10-13,-0.00438186056225601
2016-10-14,-0.002301015763520535
2016-10-17,-0.010023894080100515
2016-10-18,-0.019057422244936117
2016-10-19,-0.0026153905507851002
2016-10-20,-0.014237444847281594
2016-10-21,-0.015532784851621795
2016-10-24,-0.007959943803474883
2016-10-25,-0.0002713361361242998
2016-10-26,-0.0025549468494533607
2016-10-27,0.0030564459225239926
2016-10-28,-0.001754932352858514
2016-10-31,-0.002352445267652388
2016-11-01,-0.008648757693358475
2016-11-02,-0.0071763562311570675
2016-11-03,-0.009488086814069839
2016-11-04,-0.010986477530307594
2016-11-07,-0.0008307596597496684
2016-11-08,9.351523607332296e-06
2016-11-09,-0.01285774917839335
2016-11-10,-0.010597997072779135
2016-11-11,-0.015683963983767212
2016-11-14,-0.007540501865795831
2016-11-15,-0.011048820130358452
2016-11-16,0.0012013792661542781
2016-11-17,-0.014107500528592404
2016-11-18,0.0013898766703843608
2016-11-21,-0.001565265854556002
2016-11-22,-0.0011493356369619706
2016-11-23,-0.011011958456773913
2016-11-24,-0.014522834967971587
2016-11-25,-0.017298559063563375
2016-11-28,0.006528732129418596
2016-11-29,0.007881233672419191
2016-11-30,-0.0005550148705583957
2016-12-01,0.0051499903514428125
2016-12-02,-0.009865461445954654
2016-12-05,-0.026393552164997353
2016-12-06,-0.02680058048256155
2016-12-07,-0.025879952140511673
2016-12-08,-0.022888156918538797
2016-12-09,-0.025754087173075584
2016-12-12,-0.03888624104132654
2016-12-13,-0.04319202136399779
2016-12-14,-0.034724957298148236
2016-12-15,-0.015472839838634705
2016-12-16,-0.025695188213562488
2016-12-19,-0.02449700627173916
2016-12-20,-0.03142253573821487
2016-12-21,-0.02760579979339279
2016-12-22,-0.02287332954450045
2016-12-23,-0.017010189879710286
2016-12-26,-0.014110544932203439
2016-12-27,-0.005603668104513215
2016-12-28,-0.004097058872994729
2016-12-29,-0.013538676157816931
2016-12-30,-0.005438162109565341
2017-01-03,0.00761602449091177
2017-01-04,-0.006838121134791395
2017-01-05,0.0027832947048749817
2017-01-06,-0.006687750244386241
2017-01-09,-0.008517497603188434
2017-01-10,0.004563060585315173
2017-01-11,0.003982976440033537
2017-01-12,0.003894443626387946
2017-01-13,0.0032227672936472607
2017-01-16,-0.001882169134124756
2017-01-17,-0.004175650890269368
2017-01-18,-0.00821547785250979
2017-01-19,0.00855501288501348
2017-01-20,0.004734154000350724
2017-01-23,0.007815508175300075
2017-01-24,0.004105097503294963
2017-01-25,-0.006616076117311149
2017-01-26,-0.0029043184812085655
2017-02-03,-0.008005941026615601
2017-02-06,-0.01271221532825703
2017-02-07,-0.004250328657008848
2017-02-08,-0.0061050583178801875
2017-02-09,-0.003102688105649112
2017-02-10,-0.0014282569065133064
2017-02-13,-0.004422193936424781
2017-02-14,-0.005304533965374799
2017-02-15,0.002684287131182331
2017-02-16,-0.006467168359847984
2017-02-17,-0.004443502314481717
2017-02-20,-0.014258899588161612
2017-02-21,-0.016163163905889972
2017-02-22,-0.012319334745071733
2017-02-23,-0.011031670793459077
2017-02-24,-0.01051850321526343
2017-02-27,-0.011619478876204046
2017-02-28,-0.006527819824586897
2017-03-01,-0.0016484041132863074
2017-03-02,0.008661455807062816
2017-03-03,0.022929379395679
2017-03-06,0.011690460882860836
2017-03-07,0.009210546693897037
2017-03-08,0.006712953832015912
2017-03-09,0.014028194170451506
2017-03-10,0.015174958997770716
2017-03-13,0.016063011335784
2017-03-14,0.0028583723981956554
2017-03-15,0.005479504159003047
2017-03-16,0.014778227824942598
2017-03-17,0.020914787081740167
2017-03-20,0.023169517191500066
2017-03-21,0.017391305408072995
2017-03-22,0.02772664715610565
2017-03-23,0.01980880474409823
2017-03-24,0.01825202223121834
2017-03-27,0.017307383515472376
2017-03-28,0.010019275898477165
2017-03-29,0.019955653665507847
2017-03-30,0.005788866361424133
2017-03-31,0.0001555681867044731
2017-04-05,0.007004382195849975
2017-04-06,0.02471130760097267
2017-04-07,0.023659444587035165
2017-04-10,0.008313165913820482
2017-04-11,0.020173028565469917
2017-04-12,0.01951655837097204
2017-04-13,0.019712739487390392
2017-04-14,0.014341396827931424
2017-04-17,0.017578907688771083
2017-04-18,0.011284546836082553
2017-04-19,-0.010187213666496164
2017-04-20,-0.010817844762002853
2017-04-21,-0.013479889182323497
2017-04-24,-0.011794493958218225
2017-04-25,0.003528466478440932
2017-04-26,-0.010862949463293107
2017-04-27,-0.01251856769573519
2017-04-28,0.0022690707056820247
2017-05-02,0.014350785457975523
2017-05-03,0.006087724356252905
2017-05-04,0.020142661953531593
2017-05-05,0.0013427050964290026
2017-05-08,0.0020708853362332684
2017-05-09,0.012511782875185427
2017-05-10,-0.006937033107658051
2017-05-11,-0.002399394821245994
2017-05-12,0.014106383381915676
2017-05-15,0.0026673014960411703
2017-05-16,0.009943795701637162
2017-05-17,0.0015481422093578216
2017-05-18,-0.0014907024777612993
2017-05-19,0.0019413728366148922
2017-05-22,0.0027613045793946703
2017-05-23,-0.007619158159939729
2017-05-24,0.0017329393969935936
2017-05-25,0.0017642581622985543
2017-05-26,0.0165492898301296
2017-05-31,0.015547495988547308
2017-06-01,0.0037697125042361196
2017-06-02,0.015597165455013356
2017-06-05,0.010575641151720785
2017-06-06,0.00731317044165164
2017-06-07,0.010914358930424167
2017-06-08,0.011003158498695868
2017-06-09,0.006047973311964525
2017-06-12,-0.008240073468816382
2017-06-13,-0.0019114875798994652
2017-06-14,0.0031918799326122807
2017-06-15,0.0029665215947115298
2017-06-16,0.010270060114309504
2017-06-19,0.027485693857914422
2017-06-20,0.017173491102284492
2017-06-21,0.00770362630359327
2017-06-22,0.01953463996971896
2017-06-23,0.009246951340946885
2017-06-26,0.01154913370042923
2017-06-27,0.013553210013467435
2017-06-28,0.0038249306089429176
2017-06-29,0.0030576964815844706
2017-06-30,-0.00043421490351636116
2017-07-03,0.00500399580131421
2017-07-04,0.0029406033885242336
2017-07-05,0.007547354781215232
2017-07-06,0.02563327968631153
2017-07-07,0.02442509176322172
2017-07-10,0.031968817257359144
2017-07-11,0.0038872716908048086
2017-07-12,0.005358869535579383
2017-07-13,0.006159003401911685
2017-07-14,-0.0019074597418821107
2017-07-17,-0.023167038485222523
2017-07-18,-0.014197978444797511
2017-07-19,-0.016747542012594395
2017-07-20,-0.011886197188782586
2017-07-21,-0.011359604395428926
2017-07-24,-0.01933657970126356
2017-07-25,-0.0022117818770914406
2017-07-26,-0.005507913838841128
2017-07-27,0.010072578431568354
2017-07-28,0.005577284747228645
2017-07-31,0.006678162316914198
2017-08-01,0.011218236406831495
2017-08-02,0.0008589299360575176
2017-08-03,0.003878063213278604
2017-08-04,0.014013839581751592
2017-08-07,0.01882935803816114
2017-08-08,0.01445849003556626
2017-08-09,0.008607702215565251
2017-08-10,-0.0010489045673098794
2017-08-11,0.0031202736333831513
2017-08-14,-0.00100204888838068
2017-08-15,0.0029149523138315356
2017-08-16,0.009343636274140338
2017-08-17,0.003097292712877224
2017-08-18,0.006325696706447895
2017-08-21,0.005309661411554943
2017-08-22,0.008583654589380811
2017-08-23,-0.0008159463979318347
2017-08-24,-0.0069256813674023095
2017-08-25,-0.004295141679644355
2017-08-28,-1.4297825511151111e-06
2017-08-29,-0.008942709953974615
2017-08-30,-0.016339561010237966
2017-08-31,-0.0006352182873771636
2017-09-01,-0.0015165470340249808
2017-09-04,-0.00762887901230498
2017-09-05,-0.014855627510359584
2017-09-06,-0.009239537107030559
2017-09-07,-0.02253393060663389
2017-09-08,-0.02060704309618879
2017-09-11,-0.008288925622379033
2017-09-12,-0.010669606747193517
2017-09-13,-0.00764216852800136
2017-09-14,-0.0018475151685155566
2017-09-15,-0.012906861866797821
2017-09-18,-0.00970261510541712
2017-09-19,-0.009316205150288177
2017-09-20,-0.00597767405876296
2017-09-21,-0.01728916578319685
2017-09-22,-0.014897288133523109
2017-09-25,-0.005002364452874615
2017-09-26,-0.003356702032870494
2017-09-27,-0.003775037155450349
2017-09-28,-0.003474740679096224
2017-09-29,-0.006899559916917828
2017-10-09,0.0065954550313179205
2017-10-10,-0.0018694492683253294
2017-10-11,-0.006032207694523291
2017-10-12,0.01191012810222571
2017-10-13,0.008743973562826282
2017-10-16,0.008225636303541776
2017-10-17,0.010477954057606244
2017-10-18,0.010801102505545413
2017-10-19,0.012336091132449855
2017-10-20,0.012618090982081434
2017-10-23,0.008750816191085965
2017-10-24,0.018905051349622202
2017-10-25,0.013677872918908023
2017-10-26,0.01809802392640085
2017-10-27,0.011710164397237745
2017-10-30,0.01487885414292349
2017-10-31,0.014614759824319711
2017-11-01,0.00981175612330916
2017-11-02,-0.0005730143423406768
2017-11-03,0.0005779644945157652
2017-11-06,0.0038817721636852376
2017-11-07,0.012034543237147794
2017-11-08,0.01656030501766254
2017-11-09,0.012900805367344025
2017-11-10,-0.0018020167349316746
2017-11-13,0.000790556262777839
2017-11-14,-0.0020723024811899818
2017-11-15,-0.009679478650204215
2017-11-16,-0.008177698119839502
2017-11-17,-0.01247403281818746
2017-11-20,-0.017454675119684144
2017-11-21,-0.024414771814633467
2017-11-22,-0.014773904519716278
2017-11-23,-0.012695800201270258
2017-11-24,-6.937402426582598e-05
2017-11-27,0.0070462577822693615
2017-11-28,0.005107064275801082
2017-11-29,0.01318153857297278
2017-11-30,0.014737534304639147
2017-12-01,0.014484284387714623
2017-12-04,0.008703422097917942
2017-12-05,0.003237734118504341
2017-12-06,-0.004390939576981952
2017-12-07,-0.0038298770784567643
2017-12-08,-0.0030360379317865283
2017-12-11,-0.01196439270480365
2017-12-12,0.005753831949634362
2017-12-13,0.010917206328451133
2017-12-14,0.0031268314375391577
2017-12-15,0.024476620585072346
2017-12-18,0.027545273627793854
2017-12-19,0.017848671844758145
2017-12-20,0.012280834906484638
2017-12-21,-0.001287583251216421
2017-12-22,-0.0004991325119738203
2017-12-25,-0.0012510425732874184
2017-12-26,-0.015079111144991643
2017-12-27,-0.011953376248123232
2017-12-28,-0.012938817098102642
2017-12-29,-0.001713287521588773
2018-01-02,-0.005080608450261455
2018-01-03,0.015697250887354904
2018-01-04,0.03377786137812272
2018-01-05,0.03452428657802876
2018-01-08,0.03205096930959755
2018-01-09,0.04476930232500491
2018-01-10,0.03255432475751077
2018-01-11,0.03150064846478542
2018-01-12,0.03150774902034548
2018-01-15,0.004312470586328915
2018-01-16,0.007530552926276517
2018-01-17,0.021011216178018467
2018-01-18,0.017634494806088544
2018-01-19,0.018126811558356007
2018-01-22,-0.005360708935689684
2018-01-23,-0.00594336934158244
2018-01-24,0.0021110774538290883
2018-01-25,0.0037603994907667165
2018-01-26,0.0034350983047346934
2018-01-29,-0.004068627969328255
2018-01-30,-0.00021725332165334343
2018-01-31,-0.011024915884526365
2018-02-01,-0.01618439528783299
2018-02-02,-0.022166275578267728
2018-02-05,-0.03302513153428394
2018-02-06,-0.052981976270620464
2018-02-07,-0.04154901050321168
2018-02-08,-0.03812491995960019
2018-02-09,-0.04297331324100688
2018-02-12,-0.02677073044994889
2018-02-13,-0.033572260623025804
2018-02-14,-0.045359240570352045
2018-02-22,-0.03826697176565884
2018-02-23,-0.01998989196355254
2018-02-26,-0.021572520599048208
2018-02-27,-0.03253305105276917
2018-02-28,-0.026373248654167535
2018-03-01,-0.015295185739937765
2018-03-02,-0.024088968351019605
2018-03-05,-0.023211855199125848
2018-03-06,-0.014072855565928584
2018-03-07,-0.01812725072051972
2018-03-08,-0.02424819599733176
2018-03-09,-0.01185999910974921
2018-03-12,-0.0027669922285985978
2018-03-13,-0.0011994630869450948
2018-03-14,-0.007002760414275933
2018-03-15,-0.01408210548983212
2018-03-16,-0.003018548743189485
2018-03-19,-0.013181252335354991
2018-03-20,-0.008057285404591774
2018-03-21,0.007658104251120394
2018-03-22,0.011825831864354583
2018-03-23,-0.01153410276221302
2018-03-26,-0.009349797844204066
2018-03-27,-0.003268785556191641
2018-03-28,-0.015198104664868475
2018-03-29,-0.01852091548314614
2018-03-30,-0.014154671972163371
2018-04-02,-0.0055608834907227775
2018-04-03,-0.015004180071324317
2018-04-04,-0.006289168009900571
2018-04-09,-0.004293500816559988
2018-04-10,-0.005540139702655647
2018-04-11,-0.009085607985730843
2018-04-12,-0.0070894319240906245
2018-04-13,-0.00684336314785928
2018-04-16,0.0007027008521612952
2018-04-17,-0.004271246418008646
2018-04-18,-0.0043040105373246575
2018-04-19,-0.004779777365538952
2018-04-20,-0.014071353231160974
2018-04-23,-0.013045200854733683
2018-04-24,-0.008790623261638536
2018-04-25,-0.005486511259261413
2018-04-26,0.0022285606779570283
2018-04-27,0.002972158940775336
2018-05-02,0.007589040144943267
2018-05-03,0.004293360911657884
2018-05-04,0.010469935351890634
2018-05-07,0.01575279078531021
2018-05-08,0.010940150628686234
2018-05-09,0.012260944399581964
2018-05-10,0.008868759258898296
2018-05-11,0.012333172534521385
2018-05-14,0.002814191352818407
2018-05-15,0.008758131228094802
2018-05-16,-0.0001109595225306792
2018-05-17,0.008681575655670473
2018-05-18,0.008862562340501777
2018-05-21,0.027204100972952304
2018-05-22,0.03335622726488423
2018-05-23,0.034654194565928206
2018-05-24,0.030860648510813
2018-05-25,0.021491348408239547
2018-05-28,0.03311505709407102
2018-05-29,0.01584509791134403
2018-05-30,0.019915978085401277
2018-05-31,0.018994096049906296
2018-06-01,0.02839638479353815
2018-06-04,0.019943006859733416
2018-06-05,0.024699899881082607
2018-06-06,0.017895465688960957
2018-06-07,0.01901855005999485
2018-06-08,0.016183537508326587
2018-06-11,0.01818231725567026
2018-06-12,0.025000063878160964
2018-06-13,0.019377722481034663
2018-06-14,0.022527952202907278
2018-06-15,0.02403065682544963
2018-06-19,0.0022688919635471573
2018-06-20,0.0016862333376361886
2018-06-21,0.006087069282096088
2018-06-22,-0.0018722030062183759
2018-06-25,-0.013501833997487151
2018-06-26,-0.020720167425526372
2018-06-27,-0.017933859127796135
2018-06-28,-0.019153044873969557
2018-06-29,-0.015804953197409034
2018-07-02,-0.03314567418656413
2018-07-03,-0.030038881744025515
2018-07-04,-0.018391058712878366
2018-07-05,-0.014393144207410313
2018-07-06,-0.01356765093790681
2018-07-09,-0.013386581260236112
2018-07-10,-0.015969410894290516
2018-07-11,-0.020260123142635995
2018-07-12,-0.018695174099204057
2018-07-13,-0.01934490500803117
2018-07-16,-0.02013611008977679
2018-07-17,-0.012742195600399625
2018-07-18,-0.012091601037755802
2018-07-19,-0.014787160577843659
2018-07-20,-0.018916560657282498
2018-07-23,-0.006679334185923563
2018-07-24,-0.0018503009711868176
2018-07-25,-0.00478255094358903
2018-07-26,0.0034925823633466108
2018-07-27,0.004270992703286618
2018-07-30,0.006338626807519676
2018-07-31,0.0038482375846790283
2018-08-01,0.008293897660354623
2018-08-02,0.007834703678069748
2018-08-03,0.010237808808581605
2018-08-06,0.006539224365995974
2018-08-07,0.015262977839411735
2018-08-08,0.01175730652316945
2018-08-09,0.017263876354945307
2018-08-10,0.01230891630909653
2018-08-13,0.008986687102474494
2018-08-14,0.014806449266834096
2018-08-15,0.010555544923717915
2018-08-16,0.008269847657145377
2018-08-17,0.003626568724149445
2018-08-20,0.0019494255479432128
2018-08-21,-0.003972168084338987
2018-08-22,-0.01071472718740243
2018-08-23,-0.006935641163059709
2018-08-24,-0.009069927243858862
2018-08-27,-0.007105601778105328
2018-08-28,-0.006404137357410681
2018-08-29,-0.00794406494994661
2018-08-30,-0.007459579916136256
2018-08-31,-0.005556308369125866
2018-09-03,0.0032655120462971917
2018-09-04,-0.0035779285398637624
2018-09-05,0.01198975887665188
2018-09-06,0.01189075229661879
2018-09-07,0.02216425377184983
2018-09-10,0.021080341663487483
2018-09-11,0.007427347759689007
2018-09-12,0.01468222001711373
2018-09-13,0.020969325171990093
2018-09-14,0.02146470888337362
2018-09-17,0.010506897698619599
2018-09-18,0.012049035928878248
2018-09-19,0.013985373926132104
2018-09-20,0.014632650412889789
2018-09-21,-0.0012424409116757462
2018-09-25,-0.01197191487312968
2018-09-26,-0.005871114902057155
2018-09-27,-0.0066342243142210044
2018-09-28,-0.003912445737355642
2018-10-08,-0.007361324101759667
2018-10-09,-0.010685761293626236
2018-10-10,-0.00575671389508127
2018-10-11,-0.022055566421842428
2018-10-12,-0.027789396841616743
2018-10-15,-0.028468204446294554
2018-10-16,-0.040135511094782236
2018-10-17,-0.034048023902155694
2018-10-18,-0.06284003787824788
2018-10-19,-0.05700377122908874
2018-10-22,-0.04654783633088388
2018-10-23,-0.030966134249138258
2018-10-24,-0.014809942509823627
2018-10-25,-0.02148732924959526
2018-10-26,-0.0179023760734945
2018-10-29,-0.00754243144885651
2018-10-30,-0.010532529377245798
2018-10-31,-0.010432391893802717
2018-11-01,-0.005405970151992203
2018-11-02,-0.007795410010492453
2018-11-05,-0.0022468020463770905
2018-11-06,0.00028580021571026834
2018-11-07,0.004382421224203872
2018-11-08,0.004691349966386085
2018-11-09,0.0034771686550845488
2018-11-12,0.005185001543416319
2018-11-13,0.006522404494358295
2018-11-14,0.009935341113445073
2018-11-15,0.01240357494699319
2018-11-16,0.019313102867303037
2018-11-19,0.011268114354645493
2018-11-20,0.010174662771215537
2018-11-21,0.009228330050094307
2018-11-22,0.00854822906655393
2018-11-23,0.005436233735174507
2018-11-26,0.0024941785872713562
2018-11-27,0.004230374462636435
2018-11-28,0.0009502837670424882
2018-11-29,0.0021740257578859376
2018-11-30,0.006882697030205949
2018-12-03,0.008222361732112438
2018-12-04,0.008146841747862621
2018-12-05,0.005679081219972133
2018-12-06,-0.0003338371204975807
2018-12-07,0.0028289469248327093
2018-12-10,0.004258537347838723
2018-12-11,0.00923036940058104
2018-12-12,0.008132224248483252
2018-12-13,0.006280674705559684
2018-12-14,0.005485877814181351
2018-12-17,0.0070526447522754
2018-12-18,0.0041318917428585416
2018-12-19,0.0006428601825640892
2018-12-20,0.001956443818221458
2018-12-21,-0.0012370351255972245
2018-12-24,-0.0016613422984154882
2018-12-25,0.002271346047011631
2018-12-26,0.007595889480905553
2018-12-27,-0.0018473522871572598
2018-12-28,0.003228963292977144
2019-01-02,0.003914177367303831
2019-01-03,0.008951049272739958
2019-01-04,0.010060906621161013
2019-01-07,0.00823591039047885
2019-01-08,0.005046562091949036
2019-01-09,-0.003500869533008183
2019-01-10,0.0020887531612018007
2019-01-11,0.0028989661491454974
2019-01-14,-0.012668742732841368
2019-01-15,-0.0037162236118568753
2019-01-16,-0.010502770966196381
2019-01-17,-0.0056167541833465895
2019-01-18,-0.011523026950158763
2019-01-21,-0.019022489682705895
2019-01-22,-0.029705841686953074
2019-01-23,-0.027529328680002227
2019-01-24,-0.03804087658075768
2019-01-25,-0.035861555894566216
2019-01-28,-0.04180679671897314
2019-01-29,-0.045392516490100426
2019-01-30,-0.0615567964482337
2019-01-31,-0.07657074723230509
2019-02-01,-0.02546807858135719
2019-02-11,-0.035791178375580296
2019-02-12,-0.04396061994102442
2019-02-13,-0.04115072335174706
2019-02-14,-0.03315526625546811
2019-02-15,-0.0528099651866821
2019-02-18,-0.042530747681383804
2019-02-19,-0.021703844605007155
2019-02-20,-0.01685118979306402
2019-02-21,-0.029661404084869225
2019-02-22,-0.019998466947392643
2019-02-25,-0.02073474370508859
2019-02-26,-0.0012580626902907177
2019-02-27,-0.007708467954370329
2019-02-28,0.004733160183681535
2019-03-01,0.004663228040705951
2019-03-04,0.002458091578976279
2019-03-05,-0.003210832553716972
2019-03-06,-0.006235374996968884
2019-03-07,-0.006128243578367075
2019-03-08,-0.014941254965309944
2019-03-11,-0.018571910525412946
2019-03-12,-0.005383414848042986
2019-03-13,-0.003348501489574926
2019-03-14,0.002110983889282006
2019-03-15,-0.001879738953729615
2019-03-18,0.004008395341963601
2019-03-19,0.0006982209442905757
2019-03-20,0.0049682119791432805
2019-03-21,0.002264341417260382
2019-03-22,0.0014960907873992207
2019-03-25,-0.005499890411291369
2019-03-26,-0.0042267635822154995
2019-03-27,-0.002989848988296878
2019-03-28,-0.004577292325308416
2019-03-29,-0.01362155375404292
2019-04-01,-0.013753773636541785
2019-04-02,-0.010353640536966052
2019-04-03,-0.010819028033098713
2019-04-04,-0.010476371658818193
2019-04-08,0.003746981915796685
2019-04-09,0.00332292163440083
2019-04-10,-0.0022042945866772995
2019-04-11,0.01133815865510826
2019-04-12,0.013463473980226313
2019-04-15,0.007783491734445029
2019-04-16,-0.0009390185481451541
2019-04-17,-0.003919344919698087
2019-04-18,0.0032341442515520513
2019-04-19,0.00214556574082643
2019-04-22,0.011615938118276783
2019-04-23,0.012106538716224288
2019-04-24,0.018010292127043567
2019-04-25,0.013745358022254059
2019-04-26,0.01859663720205898
2019-04-29,0.019322299575171828
2019-04-30,0.01690845517072328
2019-05-06,0.013564870890864823
2019-05-07,0.014354450832755116
2019-05-08,0.010451138549119873
2019-05-09,0.0008317935312635652
2019-05-10,-0.0008379249501462294
2019-05-13,-0.0008881515745234603
2019-05-14,-0.0022582238776144917
2019-05-15,-0.0018657767251153007
2019-05-16,0.006453414469043165
2019-05-17,0.0022476837571819563
2019-05-20,-0.0030745179582943385
2019-05-21,-0.003114114527324149
2019-05-22,-0.005054504383424065
2019-05-23,-0.009788225780505214
2019-05-24,-0.011332223924628931
2019-05-27,-0.013608032336868171
2019-05-28,-0.006062310804587093
2019-05-29,-0.008679109879266601
2019-05-30,-0.007133592155410852
2019-05-31,-0.0015241346060126046
2019-06-03,-0.0053648617964906775
2019-06-04,-0.012016032688149367
2019-06-05,-0.010099656946990984
2019-06-06,-0.008022325445447856
2019-06-10,0.0038552798232815225
2019-06-11,0.003997844705636883
2019-06-12,0.011174538668353013
2019-06-13,0.006133881520757133
2019-06-14,0.0030757860044187124
2019-06-17,0.010247127349516924
2019-06-18,0.0015588642880033018
2019-06-19,0.008437749057964575
2019-06-20,0.010470403025829404
2019-06-21,0.008519364271844554
2019-06-24,0.012624168333894651
2019-06-25,0.008106274796050512
2019-06-26,0.00898835958347926
2019-06-27,0.010870979948472389
2019-06-28,0.002540602526689705
2019-07-01,0.00613686599417455
2019-07-02,0.00701251493740836
2019-07-03,0.01524888373747299
2019-07-04,0.011561465497567733
2019-07-05,0.010894885508728545
2019-07-08,0.0036031213349413966
2019-07-09,0.014355740078419846
2019-07-10,0.003079037434422397
2019-07-11,0.004771285871588243
2019-07-12,0.004913019415035979
2019-07-15,0.007964381724694606
2019-07-16,0.011586558193037305
2019-07-17,0.011291125418643345
2019-07-18,0.01108948144402835
2019-07-19,0.012721346503995885
2019-07-22,0.001647306639493775
2019-07-23,0.008430649403231159
2019-07-24,0.009906423598306359
2019-07-25,0.010469440087540773
2019-07-26,0.0021334477833242988
2019-07-29,0.004973675425244663
2019-07-30,0.006678160205653724
2019-07-31,-0.0006484144935439078
2019-08-01,0.003167752765812875
2019-08-02,0.0023506104779601657
2019-08-05,-0.006146045655517178
2019-08-06,-0.00566915307733467
2019-08-07,-0.0042344417163980436
2019-08-08,-0.012034244347439382
2019-08-09,-0.012300470339175168
2019-08-12,-0.02246956432313328
2019-08-13,-0.024718294446662722
2019-08-14,-0.02119729805514134
2019-08-15,-0.028463231448621583
2019-08-16,-0.026467671498541616
2019-08-19,-0.01332510511798082
2019-08-20,-0.009026561082371511
2019-08-21,-0.015497900252158837
2019-08-22,-0.015048337423683548
2019-08-23,-0.011148840849961757
2019-08-26,-0.017372924232439472
2019-08-27,-0.00811199191203384
2019-08-28,-0.003262908561830955
2019-08-29,-0.0010542793775642975
2019-08-30,-0.004078986430551666
2019-09-02,0.0022822218856634923
2019-09-03,-0.0024349509699207504
2019-09-04,0.0010417049781105078
2019-09-05,0.0007199231196747843
2019-09-06,0.0019349567693566507
2019-09-09,0.003605164054677765
2019-09-10,-0.0024947382247187764
2019-09-11,0.004590594774915845
2019-09-12,0.0038603450870799694
2019-09-16,0.0016139177771114926
2019-09-17,0.0007772353286534684
2019-09-18,0.0008630312639807524
2019-09-19,-0.0032560767683826528
2019-09-20,-0.0032877295137904213
2019-09-23,-0.011140949678538297
2019-09-24,-0.006299612854303154
2019-09-25,-0.00345546891003522
2019-09-26,0.0044329261554080625
2019-09-27,-0.00021235585690717457
2019-09-30,0.005305939701508871
2019-10-08,0.004917455044877266
2019-10-09,0.0031220856637231495
2019-10-10,0.0013337589702327908
2019-10-11,0.00608733888277057
2019-10-14,0.00798064680824487
2019-10-15,0.011074939328267797
2019-10-16,0.0205783808608734
2019-10-17,0.020326946552357467
2019-10-18,0.021157858876412215
2019-10-21,0.013070323225715025
2019-10-22,0.015850284154846524
2019-10-23,0.015462689218314412
2019-10-24,0.01883286529288053
2019-10-25,0.0011201447949721914
2019-10-28,-0.011641229762687983
2019-10-29,-0.008459473163936608
2019-10-30,-0.003960685807632784
2019-10-31,-0.0022053393638029333
2019-11-01,-0.00890673275176874
2019-11-04,-0.009210969532246788
2019-11-05,-0.010272135306314299
2019-11-06,-0.005058267451834533
2019-11-07,-0.005812630364871018
2019-11-08,-0.0027370256721480158
2019-11-11,-0.01040811282505011
2019-11-12,-0.0219328537926891
2019-11-13,-0.012973943110481898
2019-11-14,-0.010528698187278026
2019-11-15,-0.0092989491490779
2019-11-18,-0.00967176071277319
2019-11-19,-0.008300719710727739
2019-11-20,-0.004763263147347013
2019-11-21,-0.01022307474884284
2019-11-22,-0.000798594042178094
2019-11-25,0.012871415252827197
2019-11-26,0.007758582046025822
2019-11-27,0.00747089152336982
2019-11-28,0.01239713996328562
2019-11-29,0.0035451440361822933
2019-12-02,-0.0033351983658452752
2019-12-03,-0.003454815826412848
2019-12-04,-0.0028404715331265956
2019-12-05,-0.01078935263045163
2019-12-06,-0.021927215010289054
2019-12-09,-0.01923613096944314
2019-12-10,-0.022436205574130064
2019-12-11,-0.0131377132087349
2019-12-12,-0.010573618767636225
2019-12-13,-0.0005326509494939721
2019-12-16,-0.0081159310239457
2019-12-17,0.007056088652074452
2019-12-18,0.005568115883022872
2019-12-19,0.011504077184023177
2019-12-20,0.02057618483192776
2019-12-23,0.03500767800634533
2019-12-24,0.04067677263607987
2019-12-25,0.03672534095884962
2019-12-26,0.05975340510366181
2019-12-27,0.06691408009074623
2019-12-30,0.06044852193170396
2019-12-31,0.05261575767719931
2020-01-02,0.05393873545026383
2020-01-03,0.04902733853538846
2020-01-06,0.0522981718095012
2020-01-07,0.0537027674254911
2020-01-08,0.050146768673261954
2020-01-09,0.05049808014138109
2020-01-10,0.04787191658834884
2020-01-13,0.05649734425257895
2020-01-14,0.05986874410582613
2020-01-15,0.06158715753385896
2020-01-16,0.06373601511178369
2020-01-17,0.07438458533330518
2020-01-20,0.07463885150675081
2020-01-21,0.05768083180085904
2020-01-22,0.04322549146944564
2020-01-23,0.04364719914108695
2020-02-03,0.01658831229942251
2020-02-04,0.019568069274286268
2020-02-05,0.013162700281137703
2020-02-06,0.010686843819640392
2020-02-07,0.018501130122641825
2020-02-10,0.02760039387363364
2020-02-11,0.025996769455024146
2020-02-12,0.028313140314562207
2020-02-13,0.027940031365808478
2020-02-14,0.04232346396962075
2020-02-17,0.04411627397678128
2020-02-18,0.037432790190365134
2020-02-19,0.04680270858307102
2020-02-20,0.051490265437647745
2020-02-21,0.035933126402046336
2020-02-24,0.019756464650655434
2020-02-25,0.0018382071082713725
2020-02-26,0.009456103244070951
2020-02-27,0.013676735413234498
2020-02-28,0.00912437823421322
2020-03-02,0.0024581159143794995
2020-03-03,-0.009537882732233605
2020-03-04,0.008725698680573102
2020-03-05,0.015207181273024506
2020-03-06,0.01403866354607397
2020-03-09,0.010071396531755983
2020-03-10,0.006200930093854119
2020-03-11,0.005561651097701452
2020-03-12,-0.011735068244184854
2020-03-13,-0.025839905249022604
2020-03-16,-0.013008000138280098
2020-03-17,-0.01658565766764063
2020-03-18,-0.015627369805824378
2020-03-19,-0.031327076051122414
2020-03-20,-0.017745336709075736
2020-03-23,-0.006416996146386453
2020-03-24,0.02136303870746215
2020-03-25,0.015958137217277138
2020-03-26,0.013667945071085636
2020-03-27,0.02151094888500206
2020-03-30,0.04232161504820118
2020-03-31,0.035733969200277806
2020-04-01,0.03304022316246141
2020-04-02,0.031172909765658317
2020-04-03,0.03248722405763514
2020-04-07,0.029607349894778798
2020-04-08,0.029723678091360443
2020-04-09,0.03224616745454896
2020-04-10,0.034456018740319824
2020-04-13,0.040478420538731213
2020-04-14,0.04347216615900449
2020-04-15,0.03035196683543035
2020-04-16,0.03197730206215013
2020-04-17,0.028959190250499662
2020-04-20,0.026614312548776737
2020-04-21,0.026506207213055032
2020-04-22,0.024288188542182485
2020-04-23,0.029377201281535304
2020-04-24,0.023977267752910248
2020-04-27,0.016144027693051104
2020-04-28,0.009182422881347373
2020-04-29,0.014778155564594789
2020-04-30,0.014180795967526943
2020-05-06,0.006377072943750574
2020-05-07,0.004143118767955022
2020-05-08,0.007437122511509398
2020-05-11,0.008466144278978488
2020-05-12,0.0008410857229426815
2020-05-13,0.006881654453265487
2020-05-14,0.006603824682293612
2020-05-15,0.006609103529582817
2020-05-18,0.012857410935053208
2020-05-19,0.0056622575310337105
2020-05-20,0.009597952937864274
2020-05-21,0.004523995437939542
2020-05-22,0.008548719971596522
2020-05-25,0.012460991539859516
2020-05-26,0.019384048164558847
2020-05-27,0.03182083873459391
2020-05-28,0.03224713832852307
2020-05-29,0.026906829392282977
2020-06-01,0.018220217646917725
2020-06-02,0.009363425908882443
2020-06-03,0.0037646273188040036
2020-06-04,-0.022409365795881958
2020-06-05,-0.007042755255737637
2020-06-08,-0.018882474390328113
2020-06-09,-0.02280531119512061
2020-06-10,-0.01095531640215161
2020-06-11,-0.003991516317325167
2020-06-12,-0.01034563313595821
2020-06-15,-0.0026695359238798344
2020-06-16,-0.011953823832411073
2020-06-17,-0.007321711765396713
2020-06-18,-0.023745194731037755
2020-06-19,-0.024997900075883997
2020-06-22,-0.04099722654910666
2020-06-23,-0.03742229373816135
2020-06-24,-0.04122255504331929
2020-06-29,-0.04543263726808175
2020-06-30,-0.04487025405663167
2020-07-01,-0.026530902000314577
2020-07-02,-0.017757053326846864
2020-07-03,-0.008036838009197508
2020-07-06,-0.01188352769509034
2020-07-07,-0.018632771355717538
2020-07-08,-0.019219491907736638
2020-07-09,-0.010636404806490068
2020-07-10,-0.025936599957111103
2020-07-13,-0.023960404572933976
2020-07-14,-0.02980639920689646
2020-07-15,-0.03203085038570068
2020-07-16,-0.02589193744748835
2020-07-17,-0.014039213596381737
2020-07-20,-0.009244939322556954
2020-07-21,-0.007829089743310869
2020-07-22,-0.018873174796818864
2020-07-23,-0.01371334833085043
2020-07-24,-0.005004262463081673
2020-07-27,-0.0051027365160028065
2020-07-28,-0.009162549142804195
2020-07-29,-0.01971559333388297
2020-07-30,-0.021136234066967165
2020-07-31,-0.020808421580651274
2020-08-03,-0.03319803142579099
2020-08-04,-0.022262260581294366
2020-08-05,-0.026706712464146604
2020-08-06,-0.025058124698455222
2020-08-07,-0.017489794233889203
2020-08-10,-0.025506366535425762
2020-08-11,-0.027209463022993336
2020-08-12,-0.017382603703751567
2020-08-13,-0.02014314206255057
2020-08-14,-0.025748107144629787
2020-08-17,-0.025594915908127437
2020-08-18,-0.021675269530036522
2020-08-19,-0.01737296323284963
2020-08-20,-0.012319617242060571
2020-08-21,-0.015402475019819648
2020-08-24,-0.010128584842749672
2020-08-25,-0.010246474014900506
2020-08-26,0.0008290568096210246
2020-08-27,-0.002750645337733046
2020-08-28,-0.008897438850974396
2020-08-31,-0.016697451770170423
2020-09-01,-0.01042206279854694
2020-09-02,-0.009295679270993638
2020-09-03,-0.009225508366927159
2020-09-04,0.0008343637846680335
2020-09-07,0.016106286603169567
2020-09-08,0.017643560859526508
2020-09-09,0.03001542536852021
2020-09-10,0.02660294638572792
2020-09-11,0.014631620139126255
2020-09-14,0.023097369548747155
2020-09-15,0.015441160733542356
2020-09-16,0.023780745743336364
2020-09-17,0.009202881794878144
2020-09-18,0.00993814628651304
2020-09-21,0.01462615496758643
2020-09-22,0.0140829053948609
2020-09-23,0.012797598999490619
2020-09-24,0.011375089111040036
2020-09-25,0.011388696154619623
2020-09-28,0.012800137432250659
2020-09-29,0.0015308823589007502
2020-09-30,-0.004743731499113696
2020-10-09,-0.013111579229422653
2020-10-12,-0.009073037491825198
2020-10-13,-0.02005855892465541
2020-10-14,-0.03702606836950751
2020-10-15,-0.03378917869292158
2020-10-16,-0.029366442497067137
2020-10-19,-0.04191858165967517
2020-10-20,-0.05455131800924541
2020-10-21,-0.050822788637558694
2020-10-22,-0.051387618554787344
2020-10-23,-0.04153291962820619
2020-10-26,-0.05548698885474638
2020-10-27,-0.06224770485671473
2020-10-28,-0.07121193884114028
2020-10-29,-0.07457336016026225
2020-10-30,-0.08180156043811637
2020-11-02,-0.08071076299703443
2020-11-03,-0.06346472264532337
2020-11-04,-0.06790445596453819
2020-11-05,-0.048213911441772284
2020-11-06,-0.0319011370479817
2020-11-09,-0.030436279211954766
2020-11-10,-0.022593564222379268
2020-11-11,-0.01090035860450056
2020-11-12,-0.012848983813539988
2020-11-13,-0.014358717001744717
2020-11-16,0.0041936130229995525
2020-11-17,0.009009374858360921
2020-11-18,0.013354326597634858
2020-11-19,0.0063672162667016185
2020-11-20,0.006466125817635891
2020-11-23,0.01604273013875601
2020-11-24,0.029587210644846932
2020-11-25,0.02813154947217985
2020-11-26,0.032382789179192434
2020-11-27,0.037704034516259415
2020-11-30,0.041139808544738476
2020-12-01,0.03192029103095535
2020-12-02,0.028706625131087314
2020-12-03,0.017677701567334992
2020-12-04,0.01686553524659981
2020-12-07,0.029075803958884636
2020-12-08,0.024982778884551353
2020-12-09,0.03103804181794101
2020-12-10,0.027017843462049516
2020-12-11,0.010233666574631504
2020-12-14,0.008790684033686297
2020-12-15,0.009363175043079083
2020-12-16,0.00146511370732684
2020-12-17,0.00018037610730463338
2020-12-18,0.004809158750955021
2020-12-21,-0.012412134249567539
2020-12-22,-0.012956289532279182
2020-12-23,-0.005030998769084971
2020-12-24,-0.002157835277248485
2020-12-25,-0.0013815109363563005
2020-12-28,-0.0072989562267836774
2020-12-29,-0.004734067768419677
2020-12-30,0.0033890017288416494
2020-12-31,0.00890133962819926
2021-01-04,-0.0028695366743780922
2021-01-05,-0.015474866484795156
2021-01-06,-0.015144168561863187
2021-01-07,-0.014469693653943707
2021-01-08,-0.008878655147411657
2021-01-11,-0.0006242485452161255
2021-01-12,-0.00230945825721743
2021-01-13,0.011034995811605558
2021-01-14,-0.0018034948259298168
2021-01-15,-0.0028051168569674725
2021-01-18,-0.03160813198141085
2021-01-19,-0.012539814199140851
2021-01-20,-0.033913108221854095
2021-01-21,-0.05132473040446239
2021-01-22,-0.055426003237267846
2021-01-25,-0.06734229209201881
2021-01-26,-0.05839855150302781
2021-01-27,-0.06273516578386612
2021-01-28,-0.07542974550313897
2021-01-29,-0.07579002122089368
2021-02-01,-0.0931935487464812
2021-02-02,-0.10868090526565613
2021-02-03,-0.09127440645249645
2021-02-04,-0.09624925091594662
2021-02-05,-0.0996432228605714
2021-02-08,-0.1145318682556965
2021-02-09,-0.11361261323600624
2021-02-10,-0.11756019315217973
2021-02-18,-0.09225062224197673
2021-02-19,-0.08103690184961444
2021-02-22,-0.06360419277042581
2021-02-23,-0.05737078260245733
2021-02-24,-0.04867828973817345
2021-02-25,-0.034522353852066874
2021-02-26,-0.03551366737524568
2021-03-01,-0.03769398324031405
2021-03-02,-0.026929740941053902
2021-03-03,-0.024438647812206102
2021-03-04,-0.00844932780403386
2021-03-05,-0.003810889473481606
2021-03-08,0.004008573834872457
2021-03-09,0.0034049660000221964
2021-03-10,-0.004417051559563859
2021-03-11,-0.008002488946856491
2021-03-12,-0.009173489515407663
2021-03-15,0.003412270911767283
2021-03-16,0.003613439837578945
2021-03-17,0.00013498951705730048
2021-03-18,-0.006876118594993572
2021-03-19,0.005073698620835412
2021-03-22,0.013369713496430482
2021-03-23,0.020490638813499856
2021-03-24,0.013896518462574094
2021-03-25,0.02420119998514307
2021-03-26,0.017842612023711894
2021-03-29,0.024940835914315992
2021-03-30,0.025814911066381382
2021-03-31,0.02847247328817945
2021-04-01,0.028208108944457026
2021-04-02,0.016756543794884546
2021-04-06,0.009063452984683125
2021-04-07,0.014365753070817907
2021-04-08,0.017392039497154854
2021-04-09,0.01501829853062096
2021-04-12,0.022400829167048733
2021-04-13,0.013603110429380165
2021-04-14,0.023672152589474624
2021-04-15,0.020262402006712758
2021-04-16,0.03594068864981885
2021-04-19,0.03620232969684001
2021-04-20,0.033261055692858955
2021-04-21,0.0265769983303979
2021-04-22,0.02597042405678218
2021-04-23,0.01563850458334872
2021-04-26,0.022591528756469827
2021-04-27,0.016655718627938552
2021-04-28,0.01930564145418835
2021-04-29,0.025511799256893453
2021-04-30,0.011203159890127053
2021-05-06,0.014048952767127594
2021-05-07,0.029762869886215293
2021-05-10,0.013710122161803479
2021-05-11,0.006029766003230526
2021-05-12,0.009282637696581691
2021-05-13,0.012157624735332051
2021-05-14,0.00616745750330161
2021-05-17,0.0012749255470786633
2021-05-18,-0.0010842739362311054
2021-05-19,0.0011610402430271127
2021-05-20,0.012105184528330247
2021-05-21,0.012555921658609496
2021-05-24,0.010608462399214875
2021-05-25,0.008814670141412143
2021-05-26,0.00966729479318754
2021-05-27,0.010047303535905945
2021-05-28,0.012994933710424893
2021-05-31,0.012746768710582015
2021-06-01,0.016376523473457354
2021-06-02,0.030376903747958928
2021-06-03,0.018703811323394305
2021-06-04,0.021464890151261157
2021-06-07,0.016407032656549872
2021-06-08,0.035370001424021455
2021-06-09,0.041041337146879873
2021-06-10,0.0282550705078044
2021-06-11,0.0370988557058514
2021-06-15,0.02758181355500369
2021-06-16,0.042862507867830316
2021-06-17,0.03766726352324363
2021-06-18,0.03088818247337949
2021-06-21,0.03175476592482389
2021-06-22,0.04159287033429546
2021-06-23,0.053690132919959624
2021-06-24,0.051636042037062874
2021-06-25,0.047532752998800415
2021-06-28,0.0468162351227293
2021-06-29,0.044265030047129436
2021-06-30,0.04607978299280962
2021-07-01,0.05434966748283748
2021-07-02,0.06452709645412838
2021-07-05,0.048016673690639874
2021-07-06,0.05101339895367082
2021-07-07,0.04694339915773221
2021-07-08,0.03876570358011875
2021-07-09,0.04278061324809081
2021-07-12,0.03162373902658837
2021-07-13,0.03525453192849947
2021-07-14,0.028966651380774686
2021-07-15,0.022213715553634578
2021-07-16,0.029907314389918345
2021-07-19,0.016241263773321926
2021-07-20,0.008475557738954795
2021-07-21,-0.0033093536526437733
2021-07-22,0.007401457462307352
2021-07-23,0.0034927561758667652
2021-07-26,0.006957118746658703
2021-07-27,0.00925300970717113
2021-07-28,0.003538741596860337
2021-07-29,-0.010915830882146746
2021-07-30,-0.011918971778524972
2021-08-02,-0.00021250978293132355
2021-08-03,0.010514404193733451
2021-08-04,-0.02890641376661334
2021-08-05,-0.03679862982426349
2021-08-06,-0.0459128924211076
2021-08-09,-0.02503436530128003
2021-08-10,-0.016724655829427455
2021-08-11,-0.028471536125961337
2021-08-12,-0.02468560498389374
2021-08-13,-0.01867629419443568
2021-08-16,-0.012810527220573506
2021-08-17,-0.0012448829266288111
2021-08-18,-0.004758050364950153
2021-08-19,-0.02162930632209783
2021-08-20,-0.01932551679815444
2021-08-23,-0.02112757413547923
2021-08-24,-0.02259959290154534
2021-08-25,-0.022254771832301984
2021-08-26,-0.02913906745719702
2021-08-27,-0.03187268714250218
2021-08-30,-0.038442967259321684
2021-08-31,-0.027233496335983605
2021-09-01,-0.014043477949104231
2021-09-02,-0.014052959854801036
2021-09-03,-0.005454378272200716
2021-09-06,-0.004811541245864522
2021-09-07,-0.005068998735440283
2021-09-08,0.0052699445128851705
2021-09-09,-0.005207243921305983
2021-09-10,-0.009493904827433675
2021-09-13,-0.012174854519649288
2021-09-14,-0.014626559121156023
2021-09-15,-0.0229877501048828
2021-09-16,-0.01103716176938863
2021-09-17,-0.0009813479549761065
2021-09-22,-0.010801466316329118
2021-09-23,-0.015772852170673445
2021-09-24,-0.010669973314152219
2021-09-27,-0.0011909444015825545
2021-09-28,-0.014283628573389
2021-09-29,-0.01134446124422771
2021-09-30,-0.02019977764390533
2021-10-08,-0.017786130528915117
2021-10-11,0.00042447796275531073
2021-10-12,-0.0006865345744022453
2021-10-13,-0.012625407247899987
2021-10-14,-0.01367931446430054
2021-10-15,-0.01613580436818504
2021-10-18,-0.03283831199248203
2021-10-19,-0.034660985209446125
2021-10-20,-0.028243079983527673
2021-10-21,-0.023908568041423946
2021-10-22,-0.013382643730414551
2021-10-25,-0.015775875206146248
2021-10-26,-0.009632364172364533
2021-10-27,-0.011387269086828878
2021-10-28,-0.004327426361623827
2021-10-29,0.008014018513581312
2021-11-01,0.013773231644618276
2021-11-02,0.021717685712234924
2021-11-03,0.016386058489438755
2021-11-04,0.019690511175643098
2021-11-05,0.027935623621356535
2021-11-08,0.02360899194229591
2021-11-09,0.007472110334832836
2021-11-10,0.011866004006538693
2021-11-11,0.008427597787396107
2021-11-12,0.013915702499009575
2021-11-15,0.02453750150431624
2021-11-16,0.03353182544828977
2021-11-17,0.037535030076847525
2021-11-18,0.026207337592411766
2021-11-19,0.023649995767288046
2021-11-22,0.010366886114317592
2021-11-23,0.00805531188471473
2021-11-24,0.007648936690277792
2021-11-25,0.010827766098410775
2021-11-26,-0.006550620090079507
2021-11-29,-0.0178149134783302
2021-11-30,-0.02377125994381781
2021-12-01,-0.007938383428049048
2021-12-02,-0.006180307869299404
2021-12-03,-0.012781458270921722
2021-12-06,-0.01931603468786464
2021-12-07,-0.013227824813504069
2021-12-08,-0.003381954903156327
2021-12-09,-0.006242810292036667
2021-12-10,-0.014315856090130433
2021-12-13,-0.01663123954957412
2021-12-14,-0.01808314263191151
2021-12-15,-0.027790827518406582
2021-12-16,-0.022961070128493726
2021-12-17,-0.024022398581271538
2021-12-20,-0.02461127744910685
2021-12-21,-0.021918220079775824
2021-12-22,-0.029621051043873716
2021-12-23,-0.029210662464505988
2021-12-24,-0.017676007610789517
2021-12-27,-0.0073194810241627994
2021-12-28,-0.008531619602333208
2021-12-29,-0.014969944361849029
2021-12-30,-0.02090339826273551
2021-12-31,-0.021514023263792814
2022-01-04,-0.024788636486117857
2022-01-05,-0.02875069417761053
2022-01-06,-0.03308399727535519
2022-01-07,-0.019746742373834142
2022-01-10,-0.00901294654041327
2022-01-11,7.337501868259072e-05
2022-01-12,-0.0050577491999519025
2022-01-13,0.001974357627678315
2022-01-14,-0.00844997903034719
2022-01-17,-0.004494961857684429
2022-01-18,0.010871152737940919
2022-01-19,0.01043569889238025
2022-01-20,0.03364674243537256
2022-01-21,0.032742828473970365
2022-01-24,0.026783272857204277
2022-01-25,0.013870226785534526
2022-01-26,0.019734981500657795
2022-01-27,0.013662549683208477
2022-01-28,0.01875602125543101
2022-02-07,0.04084764269268628
2022-02-08,0.0545450100084297
2022-02-09,0.06008149250401638
2022-02-10,0.06050556399277434
2022-02-11,0.053195482887059026
2022-02-14,0.06141862440454297
2022-02-15,0.07170392758850136
2022-02-16,0.06923813793878747
2022-02-17,0.05114076124175628
2022-02-18,0.04236843811007334
2022-02-21,0.044107901024875024
2022-02-22,0.03158217973615707
2022-02-23,0.022702763505795046
2022-02-24,0.013464243758743666
2022-02-25,0.02786950500523154
2022-02-28,0.019331899180561045
2022-03-01,0.020602880183774083
2022-03-02,0.018140733913665108
2022-03-03,0.01813252634174134
2022-03-04,0.01116025498727042
2022-03-07,-0.007083480365982244
2022-03-08,-0.010207508977232417
2022-03-09,-0.015704815998419865
2022-03-10,-0.000372115558602934
2022-03-11,-0.009430178618553397
2022-03-14,-0.01706211230847875
2022-03-15,-0.038924946669709026
2022-03-16,-0.012030541050203071
2022-03-17,0.0055312924787912915
2022-03-18,0.01119109839410037
2022-03-21,0.00469798110778108
2022-03-22,0.014632757182131091
2022-03-23,0.021701860019171952
2022-03-24,0.02487172652816287
2022-03-25,0.01783680787492206
2022-03-28,0.020913839580577326
2022-03-29,0.020336061278357936
2022-03-30,0.01742928756755517
2022-03-31,0.017598033600830135
2022-04-01,0.02401885391566222
2022-04-06,0.023542672995889857
2022-04-07,0.01947091899432779
2022-04-08,0.01274752120270179
2022-04-11,0.0021648063308078655
2022-04-12,0.009413572243885213
2022-04-13,0.004642626784980383
2022-04-14,0.008252838680498437
2022-04-15,0.0016763904096244904
2022-04-18,0.005461263352664437
2022-04-19,-0.004783957415408288
2022-04-20,-0.0002459566329048599
2022-04-21,0.0038894009555223794
2022-04-22,-0.0011905392429215865
2022-04-25,0.0019782781514944767
2022-04-26,0.011386816198375074
2022-04-27,0.0019074568901707861
2022-04-28,-0.005073949422355749
2022-04-29,0.013871955784778574
2022-05-05,0.012498719341703397
2022-05-06,0.006705544883382111
2022-05-09,-0.010030858758362848
2022-05-10,-0.03002251502010328
2022-05-11,-0.016129590283815144
2022-05-12,-0.016955932132757617
2022-05-13,-0.0002932907660346609
2022-05-16,-0.0020742847465474237
2022-05-17,0.0012677946233195306
2022-05-18,0.00153417522629707
2022-05-19,-0.009896697718787671
2022-05-20,-0.004542619289943053
2022-05-23,-0.016621535836825442
2022-05-24,-0.019580385475001252
2022-05-25,-0.009416901164519764
2022-05-26,-0.014989098643993226
2022-05-27,-0.015180351604359973
2022-05-30,-0.0037539571338618405
2022-05-31,-0.0026260114688472502
2022-06-01,-0.005403121814428577
2022-06-02,-0.007194442123158562
2022-06-06,-0.006962378165244414
2022-06-07,0.006520307878665213
2022-06-08,0.020006640550397303
2022-06-09,0.021584446402897646
2022-06-10,0.01909902043583397
2022-06-13,0.005145688935285234
2022-06-14,0.0017062986160957805
2022-06-15,0.01427338737768489
2022-06-16,0.01134343689625507
2022-06-17,0.022843475706179412
2022-06-20,0.019761082727853534
2022-06-21,0.025967416829719585
2022-06-22,0.019882229974806473
2022-06-23,0.010520381929285968
2022-06-24,0.010259439821844043
2022-06-27,0.01031770769704933
2022-06-28,0.007191288416568908
2022-06-29,0.018917856124114
2022-06-30,0.015352518937619755
2022-07-01,0.010797668116652108
2022-07-04,0.012627171813557901
2022-07-05,0.013447801212931917
2022-07-06,0.00838394492134921
2022-07-07,-0.003923649512706004
2022-07-08,-0.004830003699125254
2022-07-11,-0.0019409798298255006
2022-07-12,0.00661491846256515
2022-07-13,0.005469034224007837
2022-07-14,-0.007476359856771987
2022-07-15,-0.019547898003555324
2022-07-18,0.0006902253950743126
2022-07-19,0.011728075984232183
2022-07-20,0.011859900810932002
2022-07-21,0.019160084134845032
2022-07-22,0.008825364159308976
2022-07-25,0.017416000358069516
2022-07-26,0.02354921554899904
2022-07-27,0.01134155702826169
2022-07-28,0.004080899858229082
2022-07-29,-0.002248177979837873
2022-08-01,-0.005129493916016676
2022-08-02,-0.016453668508011575
2022-08-03,-0.03157366273927446
2022-08-04,-0.013503638465398995
2022-08-05,-0.01201100429134282
2022-08-08,-0.00941596796061464
2022-08-09,-0.013059914461274174
2022-08-10,-0.012093396466209402
2022-08-11,-0.0020519594530825636
2022-08-12,-0.006666792212898936
2022-08-15,-0.016950553763449318
2022-08-16,-0.02016518675085303
2022-08-17,-0.023998081781191657
2022-08-18,-0.031023406418958926
2022-08-19,-0.0248015636765282
2022-08-22,-0.02375768607007226
2022-08-23,-0.02630464205219086
2022-08-24,-0.014694125153697717
2022-08-25,-0.0007657112642921876
2022-08-26,0.00769405333199534
2022-08-29,-0.001409793255073566
2022-08-30,-0.002470569855703847
2022-08-31,0.01629386993775061
2022-09-01,0.0030306846065920046
2022-09-02,0.0007616716048067518
2022-09-05,0.006470149433105976
2022-09-06,0.00579247452208384
2022-09-07,-0.0009736146310420912
2022-09-08,-0.008679001718511735
2022-09-09,-0.009832580077783953
2022-09-13,-0.008503823548935821
2022-09-14,-0.0011440138325846533
2022-09-15,0.009665683197531139
2022-09-16,0.01129216701052748
2022-09-19,0.023011614225605617
2022-09-20,0.02048540029449531
2022-09-21,0.009791323233588257
2022-09-22,-0.011221099443710626
2022-09-23,0.000187419750317816
2022-09-26,-0.0042177099355531
2022-09-27,-0.0035003100997492917
2022-09-28,-0.004470918170356361
2022-09-29,-0.004639570829964764
2022-09-30,-0.015530504226857783
2022-10-10,-0.02316514220067757
2022-10-11,-0.024623417805639845
2022-10-12,-0.011579910600280257
2022-10-13,-0.014550120672294461
2022-10-14,-0.02450981599638533
2022-10-17,-0.03764333189630625
2022-10-18,-0.04358447274738081
2022-10-19,-0.04832242715583338
2022-10-20,-0.051505237035563714
2022-10-21,-0.04478678507411706
2022-10-24,-0.058115010279926334
2022-10-25,-0.056215104231111
2022-10-26,-0.054492924181919235
2022-10-27,-0.04093652016393087
2022-10-28,-0.05194851136196932
2022-10-31,-0.05224879620813446
2022-11-01,-0.04751806581801237
2022-11-02,-0.0458333970697405
2022-11-03,-0.05194043717115118
2022-11-04,-0.04634573584513617
2022-11-07,-0.050709424392101125
2022-11-08,-0.04108425642574127
2022-11-09,-0.03354666955737999
2022-11-10,-0.035367253061031785
2022-11-11,-0.019046480179228453
2022-11-14,-0.016286053914798492
2022-11-15,-0.01436194537040174
2022-11-16,-0.013625341305708874
2022-11-17,-0.00817344677509715
2022-11-18,-0.006385042525004816
2022-11-21,-0.0030394796927088784
2022-11-22,0.0021801204458414356
2022-11-23,0.002233367457194155
2022-11-24,-0.0023280068181241657
2022-11-25,0.004738292596541153
2022-11-28,0.0006063783477737814
2022-11-29,0.007693636229984994
2022-11-30,0.007521768535192732
2022-12-01,0.012525243871364956
2022-12-02,0.012958681224553835
2022-12-05,0.008939372245514228
2022-12-06,0.016030364011370646
2022-12-07,0.014916122271205902
2022-12-08,0.007256218778561125
2022-12-09,0.0072536949886880765
2022-12-12,0.003871085900562435
2022-12-13,0.008357893336586902
2022-12-14,0.0001825156654660532
2022-12-15,0.00801463349836501
2022-12-16,-0.007390454744581373
2022-12-19,-0.008872217994144956
2022-12-20,-0.013384285769386856
2022-12-21,-0.022929934926277026
2022-12-22,-0.026889666670351656
2022-12-23,-0.02869711144341755
2022-12-26,-0.021017494760576495
2022-12-27,-0.02285000181412159
2022-12-28,-0.0237110191158275
2022-12-29,-0.02550884295055216
2022-12-30,-0.027407664797914753
2023-01-03,-0.021683757840621563
2023-01-04,-0.024615686841717804
2023-01-05,-0.02059421795654838
2023-01-06,-0.02353271135041611
2023-01-09,-0.021549580027204144
2023-01-10,-0.021366554286871606
2023-01-11,-0.02739089995907103
2023-01-12,-0.025179589637151438
2023-01-13,-0.023127947430362384
2023-01-16,-0.01853653363183143
2023-01-17,-0.026183370206420305
2023-01-18,-0.02643970212717983
2023-01-19,-0.02130475000794486
2023-01-20,-0.022865108016315874
2023-01-30,-0.022106286277242787
2023-01-31,-0.020151030398576193
2023-02-01,-0.021359375806907034
2023-02-02,-0.025700889196854565
2023-02-03,-0.022847373666910375
2023-02-06,-0.019197479599455402
2023-02-07,-0.02052726394850052
2023-02-08,-0.025098767789305518
2023-02-09,-0.025976162174859953
2023-02-10,-0.01989963387040215
2023-02-13,-0.01869897039755576
2023-02-14,-0.011653896695173718
2023-02-15,-0.01692823094522168
2023-02-16,-0.015955539956783955
2023-02-17,-0.0028032335048344395
2023-02-20,0.005982228425833392
2023-02-21,0.011843412918745192
2023-02-22,0.013282445344700085
2023-02-23,0.01651644989077884
2023-02-24,0.017012969892909322
2023-02-27,0.028185983894848218
2023-02-28,0.023473271103307995
2023-03-01,0.024737423891945567
2023-03-02,0.02559323306724019
2023-03-03,0.035758843581225774
2023-03-06,0.05107804579123035
2023-03-07,0.056133401852345194
2023-03-08,0.04871999947095369
2023-03-09,0.0478300744609477
2023-03-10,0.0327019086312089
2023-03-13,0.03061179974145436
2023-03-14,0.037424225376397315
2023-03-15,0.03058792813807839
2023-03-16,0.02471408394651911
2023-03-17,0.011570358115071573
2023-03-20,0.015227803682529725
2023-03-21,0.022086494048254194
2023-03-22,0.03063661704559447
2023-03-23,0.020339049232901245
2023-03-24,0.020350385773744713
2023-03-27,0.030434705708337322
2023-03-28,0.02081346368418107
2023-03-29,0.01548784635632022
2023-03-30,0.024529694905353977
2023-03-31,0.016086835583443468
2023-04-03,0.0007598184930824176
2023-04-04,-0.005325362249401347
2023-04-06,-0.008373361505190382
2023-04-07,-0.013266571028525277
2023-04-10,0.0008261474342028015
2023-04-11,-0.013029269113482969
2023-04-12,-0.02863261865431412
2023-04-13,-0.027432156201576952
2023-04-14,-0.027351002383781707
2023-04-17,-0.007096227734656728
2023-04-18,-0.012056289846050866
2023-04-19,-0.02101416746211651
2023-04-20,-0.04219608893089646
2023-04-21,-0.02902307947710114
2023-04-24,-0.031921616380724896
2023-04-25,-0.02481333710186691
2023-04-26,-0.007192994889819516
2023-04-27,0.014823257150228648
2023-04-28,0.016094227065651414
2023-05-04,0.019929702820072108
2023-05-05,0.011289327332955937
2023-05-08,0.010360195808883475
2023-05-09,0.0008003031103776467
2023-05-10,0.006321110316125587
2023-05-11,0.0038221236253796163
2023-05-12,0.016099991836511642
2023-05-15,0.01818431897815174
2023-05-16,0.03299579822678502
2023-05-17,0.03302312480614421
2023-05-18,0.004629528747326759
2023-05-19,0.016672034622100266
2023-05-22,0.04063421141642593
2023-05-23,0.05390937203823049
2023-05-24,0.03191747040466339
2023-05-25,0.01709683700652637
2023-05-26,0.01217054803339937
2023-05-29,0.00021347518120069277
2023-05-30,-0.0027074827732815727
2023-05-31,-0.011424361027196564
2023-06-01,-0.017119874878783622
2023-06-02,-0.00771099675625565
2023-06-05,-0.009559509411982595
2023-06-06,-0.0059411766428304515
2023-06-07,-0.008605045613063713
2023-06-08,-0.009292464643682793
2023-06-09,-0.018535623660823553
2023-06-12,-0.022720168290309574
2023-06-13,-0.028994358333931387
2023-06-14,-0.02528571537705064
2023-06-15,-0.01362681617130585
2023-06-16,-0.02088206680586817
2023-06-19,-0.024584434555570148
2023-06-20,-0.03723946743700595
2023-06-21,-0.03745975567708815
2023-06-26,-0.028161909328118434
2023-06-27,-0.026582850543994237
2023-06-28,-0.027126824389918494
2023-06-29,-0.03443622036704376
2023-06-30,-0.03968117689887793
2023-07-03,-0.02856328156798643
2023-07-04,-0.030296370972118503
2023-07-05,-0.022043496829958313
2023-07-06,-0.03127896390493835
2023-07-07,-0.024010175512833642
2023-07-10,-0.01846354173799141
2023-07-11,-0.021798709447545438
2023-07-12,-0.0180810214469857
2023-07-13,-0.017367828544693698
2023-07-14,-0.026034806762783653
2023-07-17,-0.01799901902182254
2023-07-18,-0.014531929692706272
2023-07-19,-0.025289731832579543
2023-07-20,-0.012358922353055968
2023-07-21,-0.009731595498416557
2023-07-24,-0.009595714696340279
2023-07-25,0.005932727758838192
2023-07-26,0.008463649657312632
2023-07-27,0.009832494180446107
2023-07-28,0.0050445143009781035
2023-07-31,0.005661321551948581
2023-08-01,0.008309608625097047
2023-08-02,0.00956964159504579
2023-08-03,0.009842849185296924
2023-08-04,0.008329153931213973
2023-08-07,0.006783904125156167
2023-08-08,0.005822743000133527
2023-08-09,0.009253789088906093
2023-08-10,0.014323130701517625
2023-08-11,0.01206825579497204
2023-08-14,0.010719466936678954
2023-08-15,0.005029077773758342
2023-08-16,0.005827966328832569
2023-08-17,0.007967635322529622
2023-08-18,0.006505012796926925
2023-08-21,0.004191067348945729
2023-08-22,-0.00411980998981212
2023-08-23,-0.004412388743214738
2023-08-24,-4.608940167910233e-05
2023-08-25,0.005067329911707619
2023-08-28,-0.0005508195108887438
2023-08-29,0.0035816946357108033
2023-08-30,-0.001092273993721169
2023-08-31,0.0035174531197775874
2023-09-01,0.0028251330480597615
2023-09-04,0.005294917884436062
2023-09-05,0.0017701768730706384
2023-09-06,-0.00822319399854391
2023-09-07,-0.004436290133365439
2023-09-08,-0.0042244341979005735
2023-09-11,-0.0030830198389873442
2023-09-12,0.0013834144665566678
2023-09-13,0.008025378415948664
2023-09-14,0.007103170960759159
2023-09-15,0.010805711357726039
2023-09-18,0.013856734240946307
2023-09-19,0.014974917929272843
2023-09-20,0.01799358360438576
2023-09-21,0.00018840761994462496
2023-09-22,-0.003404415520286759
2023-09-25,0.0010481123645967108
2023-09-26,-0.0033124880481106914
2023-09-27,0.00018475319738023993
2023-09-28,-0.0008479770002867478
2023-10-09,-0.002071470481172736
2023-10-10,0.001541240526995441
2023-10-11,0.00995088513207196
2023-10-12,0.01142073963255737
2023-10-13,0.009097757819938797
2023-10-16,0.012033136439159743
2023-10-17,0.012249784294087766
2023-10-18,0.01135507972012219
2023-10-19,0.00458587159746256
2023-10-20,0.007636163887729582
2023-10-23,0.005423641284602931
2023-10-24,-0.001292439561630332
2023-10-25,0.0017789402167223203
2023-10-26,-0.0005453302013771165
2023-10-27,0.003427003216725802
2023-10-30,0.003429709786326861
2023-10-31,0.004782254239672556
2023-11-01,0.009285184254456855
2023-11-02,0.00787823699944834
2023-11-03,0.00882417705521242
2023-11-06,0.006614429293359224
2023-11-07,0.002964654271824567
2023-11-08,0.00036114363192728954
2023-11-09,0.0006823733639774385
2023-11-10,0.0045581656026444685
2023-11-13,0.00651576505127887
2023-11-14,0.001709108301606553
2023-11-15,0.005641961433511221
2023-11-16,0.0063344969410624105
2023-11-17,0.00014088448760228578
2023-11-20,-0.0011083677210071696
2023-11-21,0.0028120829553629004
2023-11-22,0.0027556409286273523
2023-11-23,0.002633908321288146
2023-11-24,-0.0016388303216994596
2023-11-27,-0.0036920294683656374
2023-11-28,-0.009343036548056058
2023-11-29,-0.006733535248298346
2023-11-30,-0.005209100340072409
2023-12-01,-0.007827757289211005
2023-12-04,-0.012885892253890014
2023-12-05,-0.014963307917740734
2023-12-06,-0.014710409217503474
2023-12-07,-0.01696620399376827
2023-12-08,-0.020484869066262828
2023-12-11,-0.021601541350779317
2023-12-12,-0.020542591095679068
2023-12-13,-0.020126680169609026
2023-12-14,-0.024853772413030596
2023-12-15,-0.023141009928593307
2023-12-18,-0.02216454447853553
2023-12-19,-0.020017142048913354
2023-12-20,-0.017587813594209897
2023-12-21,-0.011376767554117158
2023-12-22,-0.008871511044277719
2023-12-25,-0.007737183079321773
2023-12-26,-0.010735253037327256
2023-12-27,-0.01806769355242047
2023-12-28,-0.01741838713700247
2023-12-29,-0.0240965416276809
2024-01-02,-0.01353912116410267
2024-01-03,-0.01413308754968566
2024-01-04,-0.00805558533849833
2024-01-05,-0.012472987693726512
2024-01-08,-0.022571046777510415
2024-01-09,-0.024662807037582793
2024-01-10,-0.022715689435699356
2024-01-11,-0.020313809896476766
2024-01-12,-0.008751233566016743
2024-01-15,-0.014535757656157982
2024-01-16,-0.02316338094967137
2024-01-17,-0.023808650568270882
2024-01-18,-0.02065993198900673
2024-01-19,-0.013721946108171124
2024-01-22,-0.01364244306971199
2024-01-23,-0.015185480547377582
2024-01-24,-0.004529951387610705
2024-01-25,0.0008701123183311246
2024-01-26,-0.0020791279370502014
2024-01-29,-1.9961820286046317e-05
2024-01-30,-0.009141446441706391
2024-01-31,-0.004863347006147017
2024-02-01,0.0020460759055468958
2024-02-02,-0.01009779458872137
2024-02-05,0.0076094309455884135
2024-02-06,0.01717144970960595
2024-02-07,0.009977464660688135
2024-02-08,-0.0030237939543647924
2024-02-19,-0.003487070923168842
2024-02-20,-0.00073361652394624
2024-02-21,0.010839160647396665
2024-02-22,0.003203412474454388
2024-02-23,0.005891379676878139
2024-02-26,0.0006608005112358345
2024-02-27,-0.018103785880125317
2024-02-28,-0.009727447963547593
2024-02-29,-0.012194948307708705
2024-03-01,-0.020997656869254616
2024-03-04,-0.01979226329362036
2024-03-05,-0.02957953451536142
2024-03-06,-0.023890482163284994
2024-03-07,-0.027714856194920163
2024-03-08,-0.030524568414377926
2024-03-11,-0.032280645043916464
2024-03-12,-0.01770836780988628
2024-03-13,-0.0143386446099034
2024-03-14,-0.012784980091813008
2024-03-15,-0.015297277674156319
2024-03-18,-0.010118843580293118
2024-03-19,-0.013631731564651767
2024-03-20,-0.021165524383507543
2024-03-21,-0.02484457560164364
2024-03-22,-0.034000239301056764
2024-03-25,-0.027085880063815543
2024-03-26,-0.01749933030751934
2024-03-27,-0.00995476773860239
2024-03-28,-0.01718018054047661
2024-03-29,-0.01691256771704768
2024-04-01,-0.030255436158407478
2024-04-02,-0.023993441776780512
2024-04-03,-0.025003424601231714
2024-04-08,-0.02647923743020364
2024-04-09,-0.028380500555508226
2024-04-10,-0.026950493755584393
2024-04-11,-0.03388861211820311
2024-04-12,-0.039342180366749635
2024-04-15,-0.042752700043276755
2024-04-16,-0.042178734723677225
2024-04-17,-0.04616692341770774
2024-04-18,-0.037330894183865336
2024-04-19,-0.040263459074071035
2024-04-22,-0.02817954037473512
2024-04-23,-0.01415615279462664
2024-04-24,-0.013292541150874703
2024-04-25,-0.0107268346700399
2024-04-26,-0.0017506548963217485
2024-04-29,0.002916069607595843
2024-04-30,0.005003780799127338
2024-05-06,0.011288591772514206
2024-05-07,0.005337008560655927
2024-05-08,0.0033061814158388877
2024-05-09,0.00778922406772729
2024-05-10,0.011812335910809216
2024-05-13,0.015351214879911423
2024-05-14,0.020221724710575387
2024-05-15,0.01601625217571657
2024-05-16,0.015434853586370994
2024-05-17,0.009960203338876483
2024-05-20,0.0042533904751549945
2024-05-21,0.005262510341137935
2024-05-22,0.010639716550157031
2024-05-23,0.00971739668387906
2024-05-24,0.005256268419113405
2024-05-27,0.00466358584552614
2024-05-28,0.0007041887858022407
2024-05-29,-0.0007022375189286861
2024-05-30,0.012950615159949136
2024-05-31,0.01907603347212153
2024-06-03,0.023888618917143074
2024-06-04,0.026073319510948333
2024-06-05,0.030564594865548043
2024-06-06,0.028791060092835656
2024-06-07,0.02464525316596239
2024-06-11,0.026226881333898597
2024-06-12,0.019283359336280215
2024-06-13,0.01962732032847529
2024-06-14,0.013811840812692277
2024-06-17,0.019529920830118383
2024-06-18,0.019077850123963323
2024-06-19,0.00957774838716622
2024-06-20,0.003929548546409402
2024-06-21,-0.0023786760765731095
2024-06-24,-0.0017250652470553922
2024-06-25,0.00305803815471177
2024-06-26,0.007633230225019789
2024-06-27,-0.0008195492308410747
2024-06-28,-0.007282072065211219
2024-07-01,-0.00807671846201806
2024-07-02,-0.003904380790113446
2024-07-03,-0.00536979779765304
2024-07-04,0.0023445972505736004
2024-07-05,0.00020521790911153664
2024-07-08,-0.02527729795627911
2024-07-09,-0.031081804823557203
2024-07-10,-0.029767836685222596
2024-07-11,-0.02310497323840075
2024-07-12,-0.013903308762832113
2024-07-15,-0.018509755347991
2024-07-16,-0.01625822874510916
2024-07-17,-0.002538657263177084
2024-07-18,0.0019858545474507397
2024-07-19,0.006256553342518546
2024-07-22,0.009304227436554943
2024-07-23,0.008178147748557726
2024-07-24,0.007726376827533091
2024-07-25,0.014188089601895937
2024-07-26,0.01083346882905471
2024-07-29,0.004792744952645402
2024-07-30,0.004566936672901541
2024-07-31,0.011823673982532937
2024-08-01,-3.854331739633343e-05
2024-08-02,0.0006904400708406967
2024-08-05,0.028640997259736123
2024-08-06,0.025764762239314752
2024-08-07,0.011924623062943163
2024-08-08,0.01372567245713965
2024-08-09,0.009356757048563605
2024-08-12,0.006134648279507025
2024-08-13,0.004619334624687034
2024-08-14,-0.0058672036815496965
2024-08-15,-0.001741965220747911
2024-08-16,-0.0012510125119979051
2024-08-19,0.0023740346880116864
2024-08-20,-0.005066952959736384
2024-08-21,-0.004470432310738709
2024-08-22,-0.002809971361720563
2024-08-23,-0.014787640507110272
2024-08-26,-0.01866122411479521
2024-08-27,-0.029453024843477317
2024-08-28,-0.05309591817606263
2024-08-29,-0.0851795685603591
2024-08-30,-0.11581952511191529
2024-09-02,-0.09003917779438603
2024-09-03,-0.07388224792860995
2024-09-04,-0.04687639692515638
2024-09-05,-0.045465013043964164
2024-09-06,-0.0355828181900705
2024-09-09,-0.027171245073050243
2024-09-10,-0.028912151716367185
2024-09-11,-0.03998929252058492
2024-09-12,-0.041968612436620395
2024-09-13,-0.04022761030078428
2024-09-18,-0.04191150620989678
2024-09-19,-0.03430331359426239
2024-09-20,-0.04906522807852623
2024-09-23,-0.05450752368835146
2024-09-24,-0.04547871203012946
2024-09-25,-0.04558219785596268
2024-09-26,-0.02412417575698167
2024-09-27,-0.008143551856164083
2024-09-30,0.008326382362170544
2024-10-08,-0.006295921818511435
2024-10-09,0.0060039004193016415
2024-10-10,0.020880476463952025
2024-10-11,0.012038461665113964
2024-10-14,0.007943439546122644
2024-10-15,0.004370181295039466
2024-10-16,0.00731972079448448
2024-10-17,0.010002457647125595
2024-10-18,0.0008311428159227113
2024-10-21,-0.0038084631979204715
2024-10-22,-0.0014041200422280145
2024-10-23,0.0023103202926696743
2024-10-24,0.002903491839641021
2024-10-25,-0.0006183484942171077
2024-10-28,-0.002636933814180273
2024-10-29,-0.0028569381556242876
2024-10-30,-0.00018403915335156971
2024-10-31,-0.00938386786045459
2024-11-01,0.006162707553597645
2024-11-04,0.004562145555342208
2024-11-05,-0.014371252821344924
2024-11-06,-0.013186843156913663
2024-11-07,-0.013342323038837534
2024-11-08,-0.013845274239960442
2024-11-11,-0.034697952406053355
2024-11-12,-0.02712752381175393
2024-11-13,-0.03262299642205266
2024-11-14,-0.027502754126330763
2024-11-15,-0.011746052363176895
2024-11-18,-0.0029521756560105267
2024-11-19,-0.016428040154298384
2024-11-20,-0.011214736841077667
2024-11-21,-0.00530582220120005
2024-11-22,0.012623603755737367
2024-11-25,0.006549054848495835
2024-11-26,0.013418746892472133
2024-11-27,0.001014913209599481
2024-11-28,0.012087444803705383
2024-11-29,-9.217890838791182e-05
2024-12-02,0.0014737811498965261
2024-12-03,-0.004370286671722155
2024-12-04,-0.01367271966947178
2024-12-05,-0.03245045073066481
2024-12-06,-0.03365669903553538
2024-12-09,-0.013028425495642391
2024-12-10,-0.014078233571365902
2024-12-11,-0.017089532980422366
2024-12-12,-0.014553472308877269
2024-12-13,-0.012484426403525206
2024-12-16,-0.0023051958987166145
2024-12-17,-0.0017469443922597423
2024-12-18,-0.0037112714430148352
2024-12-19,-0.0047592710050044125
2024-12-20,-0.01647948664496482
2024-12-23,-0.003820812547806269
2024-12-24,0.008328665467590958
2024-12-25,0.005061176787914193
2024-12-26,0.0055358248298389735
2024-12-27,-0.009097537538349937
2024-12-30,-0.0026340689690237187
2024-12-31,0.009816444574793916
2025-01-02,0.00985184477892452
2025-01-03,0.018686330870821555
2025-01-06,0.0240849254857348
2025-01-07,0.01329428315711146
2025-01-08,0.0034065273277702063
2025-01-09,-0.008905053133471674
2025-01-10,-0.012490639976848308
2025-01-13,-0.016740685562396038
2025-01-14,-0.01644093559191394
2025-01-15,-0.018995905718974984
2025-01-16,-0.02341919408822822
2025-01-17,-0.024060365658128358
2025-01-20,-0.014844055888280971
2025-01-21,-0.03142396055959514
2025-01-22,-0.04368221709165372
2025-01-23,-0.04283469277592207
2025-01-24,-0.033294845572831674
2025-01-27,-0.01854537310854333
2025-02-05,-0.01630849397646958
2025-02-06,-0.016517032988719434
2025-02-07,-0.010843826623792036
2025-02-10,-0.008843185435127474
2025-02-11,-0.01793363653539469
2025-02-12,-0.017113722452391903
2025-02-13,-0.010481989196724703
2025-02-14,-0.00686552563737668
2025-02-17,-0.011956107184398731
2025-02-18,-0.005396055260749565
2025-02-19,-0.017110676446500953
2025-02-20,-0.015863923777168158
2025-02-21,-0.04221996697360056
2025-02-24,-0.042272046508186625
2025-02-25,-0.05703388831224793
2025-02-26,-0.058130783819623735
2025-02-27,-0.049653016896631125
2025-02-28,-0.02497210633031052
2025-03-03,-0.019961502033034477
2025-03-04,-0.034036401844876316
2025-03-05,-0.040797213965900865
2025-03-06,-0.06194111593475213
2025-03-07,-0.06544586006407177
2025-03-10,-0.08518710135471445
2025-03-11,-0.07125600718145472
2025-03-12,-0.0641622877932055
2025-03-13,-0.040965221083330845
2025-03-14,-0.04427548989510208
2025-03-17,-0.04445466205176431
2025-03-18,-0.06153987251337955
2025-03-19,-0.053211662257720546
2025-03-20,-0.048396622539773476
2025-03-21,-0.029270750281466515
2025-03-24,-0.03333016028758841
2025-03-25,-0.009765168955082938
2025-03-26,-0.01930494513012886
2025-03-27,-0.013751909551452324
2025-03-28,-0.012988593404484137
2025-03-31,-0.006123814574952247
2025-04-01,0.0055199264379552325
2025-04-02,0.011580778163249136
2025-04-03,0.012520408858059398
2025-04-07,0.032511510279967654
2025-04-08,0.04665763999243676
2025-04-09,0.038940009221399945
2025-04-10,0.01999202464391838
2025-04-11,0.010851817191423557
2025-04-14,-0.002311891011198844
2025-04-15,0.005113798469691139
2025-04-16,0.010394622821100645
2025-04-17,0.014328584410583753
2025-04-18,0.012165025780819398
2025-04-21,0.006645666337014449
2025-04-22,0.006167425984209832
2025-04-23,0.0019759898982548915
2025-04-24,0.007331682045730715
2025-04-25,0.0027952932578050697
2025-04-28,0.010386194855017385
2025-04-29,0.004821779768129069
2025-04-30,0.002863452892458127
2025-05-06,-0.0002682915770323112
2025-05-07,0.010564688132237529
2025-05-08,0.013090331775585282
2025-05-09,0.02069846726674001
2025-05-12,0.018019607893682746
2025-05-13,0.019871969812800493
2025-05-14,0.025344283012813898
2025-05-15,0.027230748233475863
2025-05-16,0.028869591867941483
2025-05-19,0.02349867051892216
2025-05-20,0.02090454131958094
2025-05-21,0.019506650312784153
2025-05-22,0.015307991106789627
2025-05-23,0.019155235270806228
2025-05-26,0.026644141021049002
2025-05-27,0.03183799802863291
2025-05-28,0.030253914815218025
2025-05-29,0.022354136868055485
2025-05-30,0.033935687298462844
2025-06-03,0.028076941838687357
2025-06-04,0.013382877891400639
2025-06-05,0.010832641525956498
2025-06-06,0.009422940333162384
2025-06-09,0.0038311108963454445
2025-06-10,0.003073458499641059
2025-06-11,0.003671744907594112
2025-06-12,-0.005835230968185293
2025-06-13,0.0002665748348500835
2025-06-16,-0.004053728981999759
2025-06-17,0.013935638761924676
2025-06-18,0.0171297407243459
2025-06-19,0.025535452049012954
2025-06-20,0.027743978420670813
2025-06-23,0.012863006084537401
2025-06-24,-0.0010976773346690338
2025-06-25,0.0015739598769760332
2025-06-26,0.005604061717077349
2025-06-27,0.009670671449214463
2025-06-30,0.016050569025668586
2025-07-01,0.022864098456263506
2025-07-02,0.023464076281399238
2025-07-03,0.028461523115201372
2025-07-04,0.02364777517170908
2025-07-07,0.026870621223494824
2025-07-08,0.026181628955750033
2025-07-09,0.029721614979196904
2025-07-10,0.026374695420099868
2025-07-11,0.015266646684866818
2025-07-14,0.01766288511597621
2025-07-15,0.010453065207429543
2025-07-16,0.019103339631326474
2025-07-17,0.016195729541742872
2025-07-18,0.02227666488293055
2025-07-21,0.032231365898332795
2025-07-22,0.03515774948116558
2025-07-23,0.026112133247133976
2025-07-24,0.02254255188911458
2025-07-25,0.025251760546386955
2025-07-28,0.018611753315745827
2025-07-29,0.015042381443524391
2025-07-30,0.01996358570704665
2025-07-31,0.01865212183427424
2025-08-01,0.029890647465101297
2025-08-04,0.03647107307638052
2025-08-05,0.01671720091706158
2025-08-06,0.013355142269516465
2025-08-07,0.0052173141305521115
2025-08-08,0.012825958383852754
2025-08-11,0.010330360348485612
2025-08-12,0.00867556770653509
2025-08-13,0.008821318493076755
2025-08-14,0.01261417496599615
2025-08-15,0.01705845448924566
2025-08-18,0.015157528183213899
2025-08-19,0.029047606135692253
2025-08-20,0.027420665674035866
2025-08-21,0.039923508128595256
2025-08-22,0.018862054727352494
2025-08-25,0.031200406749025127
2025-08-26,0.040230915394047544
2025-08-27,0.03526049251692376
2025-08-28,0.02074056614874473
2025-08-29,0.024016476685982842
2025-09-01,0.02835755644439633
2025-09-02,0.062161978815382914
2025-09-03,0.06832959657164837
2025-09-04,0.0772522240706355
2025-09-05,0.05381940576367973
2025-09-08,0.03560801019704797
2025-09-09,0.05162430977394494
2025-09-10,0.04147638376958605
2025-09-11,-0.0005529634910614182
2025-09-12,-0.004330754271915859
2025-09-15,0.01316391089667198
2025-09-16,-0.0005776984643368743
2025-09-17,-0.009085889950127051
2025-09-18,0.007947468206161178
2025-09-19,0.025739261581749308
2025-09-22,-8.628344643432997e-05
2025-09-23,0.009467828672940375
2025-09-24,-0.011432842617056668
2025-09-25,-0.03154618418541862
2025-09-26,-0.023884294239776026
2025-09-29,-0.04308602110304962
2025-09-30,-0.04875189529543707
2025-10-09,-0.04468330385182251
2025-10-10,-0.019920322341298834
2025-10-13,-0.0406539023344365
2025-10-14,-0.018131385609247562
2025-10-15,-0.03191140988665463
2025-10-16,-0.019199982866988777
2025-10-17,-0.017697944295556562
2025-10-20,-0.01550122532268455
2025-10-21,-0.02458961422807044
2025-10-22,-0.022255507779248954
2025-10-23,-0.017339807469556736
2025-10-24,-0.05397630116314932
2025-10-27,-0.0588970558056436
2025-10-28,-0.05107308066858218
2025-10-29,-0.04899082420001927
2025-10-30,-0.04302696411462577
2025-10-31,-0.023875568037606744
2025-11-03,-0.0145118838054756
2025-11-04,-0.010779979681044546
2025-11-05,-0.011155724979212047
2025-11-06,-0.015935253954428758
2025-11-07,-0.005038619764145796
2025-11-10,0.02268780012930347
2025-11-11,0.038578307515068334
2025-11-12,0.03989241174538109
2025-11-13,0.02742591171423444
2025-11-14,0.04463384652401299
2025-11-17,0.031119907486211938
2025-11-18,0.019997532739562267
2025-11-19,0.0333272521947372
2025-11-20,0.024922596283383735
2025-11-21,0.04101507300037275
2025-11-24,0.05597546972554326
2025-11-25,0.04953074974050503
2025-11-26,0.0421776724833393
2025-11-27,0.041798589836772655
2025-11-28,0.03698483404191043
2025-12-01,0.03297300959163946
2025-12-02,0.04220570995296667
2025-12-03,0.04061926914100826
2025-12-04,0.04580434479245649
2025-12-05,0.05144801230512221
2025-12-08,0.044686324448517674
2025-12-09,0.036311749368617516
2025-12-10,0.04348373814514051
2025-12-11,0.05636440385003933
2025-12-12,0.042081147465954594
2025-12-15,0.06743235403379888
2025-12-16,0.08322065936631773
2025-12-17,0.07638731750526194
2025-12-18,0.08058233432480852
2025-12-19,0.06871266143729214
2025-12-22,0.06873473885392287
2025-12-23,0.0630473423238746
2025-12-24,0.06761954380457556
2025-12-25,0.062141219174051736
2025-12-26,0.07317000119696862
2025-12-29,0.07348579027687104
2025-12-30,0.054407724916087766
2025-12-31,0.05134668768483239
2026-01-05,0.01992709106261721
2026-01-06,0.029480349898231322
2026-01-07,0.006490440150935574
2026-01-08,-0.009039305931849874
2026-01-09,-0.020053947893702323
2026-01-12,-0.025713907039968953
2026-01-13,-0.006140958536677901
2026-01-14,-0.021104278210615515
2026-01-15,-0.00935383360781838
2026-01-16,-0.012173752393345361
2026-01-19,-0.009325707070158064
2026-01-20,0.012375123670699189
2026-01-21,0.009751450785570683
2026-01-22,0.005254007929550471
2026-01-23,-0.002456814956544351
2026-01-26,-0.027741662203643668
2026-01-27,-0.031354531813169974
2026-01-28,-0.021800168888009033
2026-01-29,-0.011381351186085825
2026-01-30,-0.005843662050338361
2026-02-02,0.025120019412421316
2026-02-03,-0.0011816402480221914
2026-02-04,0.005157272065459016
2026-02-05,0.015104909426910935
2026-02-06,0.0162064168936784
2026-02-09,-0.014147323990985936
2026-02-10,-0.004167869912719096
2026-02-11,-0.009446894628054828
2026-02-12,-0.021588362491895212
2026-02-13,-0.023322980878448904
2026-02-24,-0.03125779000906488
2026-02-25,-0.027095006796519966
2026-02-26,-0.0422100752877108
2026-02-27,-0.04521132402456286
2026-03-02,-0.04868692945975989
2026-03-03,-0.042858765875693844
2026-03-04,-0.044334944215331955
2026-03-05,-0.052284873610162104
2026-03-06,-0.034620115995211004
2026-03-09,-0.029825972260724726
2026-03-10,-0.013122251629765581
2026-03-11,-0.0033531101954357434
2026-03-12,0.0035434215188342028
2026-03-13,0.017034749009111075
2026-03-16,0.02400677345819395
2026-03-17,0.033391093832293474
2026-03-18,0.029505167055305113
2026-03-19,0.042850920705708354
2026-03-20,0.047949215563871564
2026-03-23,0.05159133918640271
2026-03-24,0.0683259006444077
2026-03-25,0.0575354118603344
2026-03-26,0.060482268915318244
2026-03-27,0.07024775506532768
2026-03-30,0.058115657760858294
2026-03-31,0.07671053645572465
2026-04-01,0.08152849090520309
2026-04-02,0.12157341002726638
2026-04-03,0.12167949219777581
2026-04-07,0.11292473539196621
2026-04-08,0.11546174852109632
2026-04-09,0.1152804959072535
2026-04-10,0.12281438021257143
2026-04-13,0.10456306955973078
2026-04-14,0.09099506139535131
2026-04-15,0.11447012423074715
2026-04-16,0.10682890135432384
2026-04-17,0.10814183363625772
2026-04-20,0.0896163033138713
2026-04-21,0.11539742635124166
2026-04-22,0.12648981978675944
2026-04-23,0.12824179315303197
2026-04-24,0.12444003295413596
2026-04-27,0.12117220475687429
2026-04-28,0.10374834985512599
2026-04-29,0.07189471146560195
2026-04-30,0.07998783029697235
2026-05-06,0.08316135052929605
2026-05-07,0.07967950285506634
2026-05-08,0.06699050071372857
2026-05-11,0.0247281065019049
2026-05-12,0.048920044273998216
2026-05-13,0.016930029582548738
2026-05-14,0.02937889100204365
2026-05-15,0.02775970671231679
2026-05-18,0.05379508147405783
2026-05-19,0.07210364289394132
2026-05-20,0.0815600543193013
2026-05-21,0.12887435767208033
2026-05-22,0.11490153039566087
2026-05-25,0.07377513588046136
2026-05-26,0.10071856218745544
2026-05-27,0.13377129873934135
