date,long_short
2015-03-05,-0.14247446618104526
2015-03-06,0.1241539362715798
2015-03-09,0.11150784961230942
2015-03-10,0.10939335715148515
2015-03-11,0.12384897594050681
2015-03-12,0.08281550775664259
2015-03-13,0.06840256178711196
2015-03-16,0.049225312777692654
2015-03-17,0.0641649245424698
2015-03-18,0.15025399958406266
2015-03-19,0.12218879695932472
2015-03-20,0.0702050272771082
2015-03-23,0.0568107680239702
2015-03-24,0.03463665717539427
2015-03-25,0.085709987152737
2015-03-26,0.0942093961895552
2015-03-27,0.08022170251734125
2015-03-30,0.09660426500739218
2015-03-31,0.045768278712506986
2015-04-01,0.011284172592353613
2015-04-02,0.024477368554185794
2015-04-03,0.02513349805964613
2015-04-07,0.0046157204314071325
2015-04-08,-0.007446849767087468
2015-04-09,-0.006306714865427086
2015-04-10,0.006615053450813549
2015-04-13,8.087153545688341e-05
2015-04-14,0.0058150696501865495
2015-04-15,0.006040230647336928
2015-04-16,0.02058439111160877
2015-04-17,0.03990892057986288
2015-04-20,0.032484893909464664
2015-04-21,0.03512913153984759
2015-04-22,0.03165640483313487
2015-04-23,0.029976741028184622
2015-04-24,0.03314216556838954
2015-04-27,0.028791398421099748
2015-04-28,0.02302996512832759
2015-04-29,0.026727785392340234
2015-04-30,-9.12527493567572e-05
2015-05-04,0.0156528555879185
2015-05-05,0.01667299245285428
2015-05-06,0.004233001024792293
2015-05-07,-0.007263420017294991
2015-05-08,-0.01301422629702402
2015-05-11,-0.02236871451784382
2015-05-12,-0.027048728272290976
2015-05-13,-0.03629023351904581
2015-05-14,-0.026049705682785154
2015-05-15,0.0012638466830623696
2015-05-18,-0.017151484711065826
2015-05-19,-0.03272919245265343
2015-05-20,-0.03591234399349426
2015-05-21,-0.05074930491238211
2015-05-22,-0.06374310161786087
2015-05-25,-0.06062913044301563
2015-05-26,-0.0630251585018482
2015-05-27,-0.06256582707207897
2015-05-28,-0.05302374830161524
2015-05-29,-0.048090434214539735
2015-06-01,-0.08093344614452269
2015-06-02,-0.125193986078688
2015-06-03,-0.13395927151841344
2015-06-04,-0.12901480062733237
2015-06-05,-0.14340529986771372
2015-06-08,-0.14548020392373326
2015-06-09,-0.13322071227305254
2015-06-10,-0.12831047252981004
2015-06-11,-0.11717962792319972
2015-06-12,-0.14026137649337933
2015-06-15,-0.1438115121604461
2015-06-16,-0.1351260204348495
2015-06-17,-0.12305150530856437
2015-06-18,-0.12331256053547951
2015-06-19,-0.10556310627398194
2015-06-23,-0.09441858471415646
2015-06-24,-0.09365698894874375
2015-06-25,-0.07670544237503121
2015-06-26,-0.040220944983664464
2015-06-29,-0.023336465382181898
2015-06-30,-0.08071024351199965
2015-07-01,-0.04589256590139179
2015-07-02,-0.022986271029972694
2015-07-03,-0.028111705067118825
2015-07-06,-0.027899875784855255
2015-07-07,-0.01501690154572316
2015-07-08,-0.012896426089885038
2015-07-09,-0.016774002787054827
2015-07-10,-0.034862601171794044
2015-07-13,-0.054514212908622475
2015-07-14,-0.08328209776021873
2015-07-15,-0.03384180282539047
2015-07-16,-0.04067627940019531
2015-07-17,-0.047169099359033226
2015-07-20,-0.05720662489676788
2015-07-21,-0.045329709111499056
2015-07-22,-0.05690950451305771
2015-07-23,-0.04920518080347357
2015-07-24,-0.04093716218277983
2015-07-27,-0.02321720970880129
2015-07-28,-0.03698778935085335
2015-07-29,-0.033837645383577225
2015-07-30,-0.030185039873302018
2015-07-31,-0.02984336199408022
2015-08-03,0.004122366618889262
2015-08-04,-0.0015191076455836755
2015-08-05,0.013237976223167684
2015-08-06,0.02128747640870641
2015-08-07,0.021360838143184315
2015-08-10,0.007416097338749879
2015-08-11,0.021704104168376565
2015-08-12,0.030392169152437053
2015-08-13,0.03902910941394462
2015-08-14,0.02812637335597807
2015-08-17,0.02585096157718307
2015-08-18,0.05680653549574648
2015-08-19,0.03303137303914027
2015-08-20,0.036035074011946215
2015-08-21,0.04080666772811648
2015-08-24,0.05646616715203563
2015-08-25,0.06607428207722635
2015-08-26,0.0685721930966838
2015-08-27,0.03590120564716047
2015-08-28,0.033609436856721124
2015-08-31,0.032346398718493055
2015-09-01,0.06292284588113074
2015-09-02,0.06941903646055089
2015-09-07,0.04602426450884098
2015-09-08,0.044106031542614985
2015-09-09,0.042356805741090485
2015-09-10,0.05675525908962639
2015-09-11,0.0459137768735682
2015-09-14,0.09442281555503952
2015-09-15,0.10522954238943029
2015-09-16,0.08156205928118204
2015-09-17,0.10126106369690308
2015-09-18,0.10489851958583699
2015-09-21,0.10793297927965595
2015-09-22,0.10945483639608317
2015-09-23,0.10056483905565008
2015-09-24,0.08496179431701169
2015-09-25,0.0834182947782787
2015-09-28,0.06572804005642262
2015-09-29,0.09220213437874766
2015-09-30,0.07726700209259642
2015-10-08,0.07780786977854348
2015-10-09,0.04737559275228538
2015-10-12,0.05382131629383976
2015-10-13,0.05515809541224824
2015-10-14,0.05192137941542456
2015-10-15,0.00915303219174803
2015-10-16,0.0016139213845615813
2015-10-19,0.00952371392063131
2015-10-20,-0.008078690513611611
2015-10-21,0.0056929792558366235
2015-10-22,0.004741954773338913
2015-10-23,0.01726343186404533
2015-10-26,0.02117706300556381
2015-10-27,0.012883482540071226
2015-10-28,0.022877759698773342
2015-10-29,0.01777856450979423
2015-10-30,0.013199741402441734
2015-11-02,-0.00421225561873767
2015-11-03,-0.001751447587663435
2015-11-04,-0.03417350730731078
2015-11-05,-0.037182304600698046
2015-11-06,-0.05322385743388858
2015-11-09,-0.04328679570833699
2015-11-10,-0.03697263238603016
2015-11-11,-0.04709889880407245
2015-11-12,-0.03989219359961557
2015-11-13,-0.04247913862489708
2015-11-16,-0.04511725480723794
2015-11-17,-0.029530686243832024
2015-11-18,-0.03284232621138464
2015-11-19,-0.025374692964383813
2015-11-20,-0.03367287072350497
2015-11-23,-0.024583537734852987
2015-11-24,-0.03626504675760783
2015-11-25,-0.05238690987442374
2015-11-26,-0.05636364925882567
2015-11-27,-0.06803168193127913
2015-11-30,-0.042278205063068786
2015-12-01,-0.042562081801130705
2015-12-02,-0.03167343361289744
2015-12-03,-0.06570013888103168
2015-12-04,-0.062413734801250065
2015-12-07,-0.0380360013026913
2015-12-08,-0.05219373899674873
2015-12-09,-0.04440863384241239
2015-12-10,-0.05015442082289975
2015-12-11,-0.01831973978912195
2015-12-14,-0.05807804434609151
2015-12-15,-0.03764613441194757
2015-12-16,-0.0617528576001158
2015-12-17,-0.05225765574464819
2015-12-18,-0.052629369766256
2015-12-21,-0.06290765118988219
2015-12-22,-0.06753328605617283
2015-12-23,-0.05244712026024083
2015-12-24,-0.04859705077841403
2015-12-25,-0.052372929994519576
2015-12-28,-0.02484153297211318
2015-12-29,-0.033694317390385864
2015-12-30,-0.027462183412937477
2015-12-31,-0.040497582500551355
2016-01-04,-0.0124617159478344
2016-01-05,-0.028705245838653033
2016-01-06,-0.037173715501082595
2016-01-07,-0.02981061710364285
2016-01-08,-0.02693584689963871
2016-01-11,-0.010269595358041984
2016-01-12,-0.04926024332108201
2016-01-13,-0.035879601958417336
2016-01-14,-0.038096067921148315
2016-01-15,-0.03406091698645296
2016-01-18,-0.05394152484365417
2016-01-19,-0.06562623475721194
2016-01-20,-0.08586511715606639
2016-01-21,-0.09037422762667255
2016-01-22,-0.08821889440352812
2016-01-25,-0.06862338137620297
2016-01-26,-0.05734353353164063
2016-01-27,-0.04953971952028851
2016-01-28,-0.03725684151948356
2016-01-29,-0.015007076803458565
2016-02-01,-0.011039405234833335
2016-02-02,-0.02114101681521966
2016-02-03,-0.04984109138031004
2016-02-04,-0.04032918396481241
2016-02-05,-0.03737989849055086
2016-02-15,-0.035686342050556596
2016-02-16,-0.0294891017836167
2016-02-17,-0.0168651826984993
2016-02-18,-0.019375080627010516
2016-02-19,-0.029205013695615793
2016-02-22,-0.0033359584218841005
2016-02-23,-0.027732852670014876
2016-02-24,-0.029274687933444607
2016-02-25,-0.02013992468410451
2016-02-26,-0.00937908682567921
2016-02-29,-0.011697212578348277
2016-03-01,-0.0210963768932843
2016-03-02,-0.01634463374188135
2016-03-03,-0.021347650707659337
2016-03-04,-0.022397576107023663
2016-03-07,-0.025276605777124872
2016-03-08,-0.006861722793155844
2016-03-09,-0.012101119057014005
2016-03-10,-0.0024276687810765515
2016-03-11,-0.012812960322758998
2016-03-14,-0.0013084210139832665
2016-03-15,-0.005487453654164011
2016-03-16,0.0033663690124824223
2016-03-17,0.00019899081867907464
2016-03-18,-0.009102235630452628
2016-03-21,-0.022751898271970834
2016-03-22,-0.02517032622638597
2016-03-23,-0.01933225742434953
2016-03-24,-0.021756403587303994
2016-03-25,-0.030532065606303414
2016-03-28,-0.00825361152914786
2016-03-29,-0.004716498097657708
2016-03-30,-0.007363621347860928
2016-03-31,-0.010189150470130501
2016-04-01,-0.007960142542032186
2016-04-05,-0.018925302962994245
2016-04-06,-0.023114147229272256
2016-04-07,-0.015482200491836556
2016-04-08,-0.018425138742624893
2016-04-11,-0.017092266836967168
2016-04-12,-0.010718601046069542
2016-04-13,-0.016932193308651623
2016-04-14,-0.023413882327757443
2016-04-15,-0.015392620042691742
2016-04-18,-0.028969083253948227
2016-04-19,-0.0225186857768577
2016-04-20,-0.014163354847814308
2016-04-21,-0.006791587074724735
2016-04-22,-0.017574943558616808
2016-04-25,-0.02483583933820721
2016-04-26,-0.0304620209853258
2016-04-27,-0.022415059722375445
2016-04-28,-0.018477633867571674
2016-04-29,-0.03254280644649786
2016-05-03,-0.034695369346186354
2016-05-04,-0.03533121370438258
2016-05-05,-0.0509854024572805
2016-05-06,-0.04222635469042285
2016-05-09,-0.02841359984714964
2016-05-10,-0.03159730411782645
2016-05-11,-0.03462336741414289
2016-05-12,-0.03190558250295668
2016-05-13,-0.0480471549538236
2016-05-16,-0.04448066123272754
2016-05-17,-0.05387837004319161
2016-05-18,-0.06378873912829985
2016-05-19,-0.0523035452181695
2016-05-20,-0.045911884985018594
2016-05-23,-0.04573633851666577
2016-05-24,-0.037387443877103216
2016-05-25,-0.024526600929107384
2016-05-26,-0.019123936249680215
2016-05-27,-0.02469007517407089
2016-05-30,-0.030382635353461834
2016-05-31,-0.0248566859291944
2016-06-01,-0.03080352889039078
2016-06-02,-0.026709604736891046
2016-06-03,-0.031365396609685396
2016-06-06,-0.032953152343259184
2016-06-07,-0.01909097666886861
2016-06-08,-0.03640359525488296
2016-06-13,-0.06253101381107579
2016-06-14,-0.052473359940489184
2016-06-15,-0.05249634562308375
2016-06-16,-0.05733293506869526
2016-06-17,-0.06414658512908153
2016-06-20,-0.04631625394246654
2016-06-21,-0.05741384929179926
2016-06-22,-0.04337632028789283
2016-06-23,-0.050224266065978795
2016-06-24,-0.06128297344955022
2016-06-27,-0.06393220897425339
2016-06-28,-0.0695460892949065
2016-06-29,-0.0614209180106774
2016-06-30,-0.050899835784622115
2016-07-01,-0.04753506211836407
2016-07-04,-0.045360055788790696
2016-07-05,-0.04255896822844296
2016-07-06,-0.03785390704421986
2016-07-07,-0.05451935593502761
2016-07-08,-0.06062745108520166
2016-07-11,-0.05174281517672732
2016-07-12,-0.03214851417962015
2016-07-13,-0.022865434032975036
2016-07-14,-0.03180173139654234
2016-07-15,-0.0015316850076425928
2016-07-18,-0.01858587961028751
2016-07-19,-0.02198581604559613
2016-07-20,-0.022974447310951374
2016-07-21,-0.017271860545869835
2016-07-22,-0.019226965191915697
2016-07-25,-0.033189943437118063
2016-07-26,-0.021571263567145928
2016-07-27,-0.026877634349189217
2016-07-28,-0.016000605304627234
2016-07-29,-0.01854735641988859
2016-08-01,-0.015323671127655605
2016-08-02,-0.007938665546128043
2016-08-03,-0.01752157810749546
2016-08-04,-0.033233488126680234
2016-08-05,-0.02246511699565492
2016-08-08,-0.0023352445477830205
2016-08-09,-0.014023412652228902
2016-08-10,-0.015107190580369585
2016-08-11,-0.00041646161078735117
2016-08-12,0.007782903553566534
2016-08-15,-0.005479466514646359
2016-08-16,-0.011191193240564246
2016-08-17,-0.012937040530005172
2016-08-18,-0.015507733922131874
2016-08-19,-0.028072005558966755
2016-08-22,-0.023344804285819285
2016-08-23,-0.021769623918660434
2016-08-24,-0.023674006685393975
2016-08-25,-0.03140094435199197
2016-08-26,-0.026888898154301295
2016-08-29,-0.02584318171798579
2016-08-30,-0.025201541964103034
2016-08-31,-0.01849903565424707
2016-09-01,-0.028617511793453183
2016-09-02,-0.024858817353697202
2016-09-05,-0.03323111383207668
2016-09-06,-0.04429012320085483
2016-09-07,-0.038969448812496074
2016-09-08,-0.0464692155434113
2016-09-09,-0.061912354677329376
2016-09-12,-0.0248515547254684
2016-09-13,-0.03850325350910153
2016-09-14,-0.04436932240835733
2016-09-19,-0.057298955368661864
2016-09-20,-0.02552702080455459
2016-09-21,-0.03868692991280962
2016-09-22,-0.028759631723470385
2016-09-23,-0.0273725895555404
2016-09-26,-0.034971733552547415
2016-09-27,-0.02547195383753083
2016-09-28,-0.031481472009713886
2016-09-29,-0.02359008098983331
2016-09-30,-0.02768406871773829
2016-10-10,-0.020833594884495137
2016-10-11,-0.028995229005498308
2016-10-12,-0.02526030463038595
2016-10-13,-0.03169311497580144
2016-10-14,-0.028725708834759747
2016-10-17,-0.027162722955544893
2016-10-18,-0.033319135190527545
2016-10-19,-0.027709869798898883
2016-10-20,-0.021601925955291788
2016-10-21,-0.030198825083038998
2016-10-24,-0.0324147271514337
2016-10-25,-0.0028266910263430416
2016-10-26,-0.015351573474726203
2016-10-27,-0.00824035738102943
2016-10-28,-0.023539143713416193
2016-10-31,-0.008299659880414832
2016-11-01,-0.006671028719770597
2016-11-02,-0.011373874783130788
2016-11-03,-0.00896147043195248
2016-11-04,-0.013474538252683674
2016-11-07,-0.014684596717310847
2016-11-08,-0.02623721370077352
2016-11-09,-0.03075873935588635
2016-11-10,-0.024485436502571168
2016-11-11,-0.02783120973648066
2016-11-14,-0.01769254431887781
2016-11-15,-0.020231163362717835
2016-11-16,-0.00455644674811209
2016-11-17,-0.01725519044337497
2016-11-18,-0.0032692166765998613
2016-11-21,0.004679027325053246
2016-11-22,0.0034193120365029568
2016-11-23,0.0021920584489267536
2016-11-24,-0.010436084924258144
2016-11-25,-0.015417111208144875
2016-11-28,-0.008830037813919573
2016-11-29,-0.00882850096937617
2016-11-30,-0.008458949475099176
2016-12-01,-0.007004229127521043
2016-12-02,-0.015506481136263343
2016-12-05,-0.02684798312276892
2016-12-06,-0.02599022012364371
2016-12-07,-0.020406945917952998
2016-12-08,-0.018978243829780535
2016-12-09,-0.027475886870338334
2016-12-12,-0.03871775339504847
2016-12-13,-0.04218009789195657
2016-12-14,-0.041697605120151755
2016-12-15,-0.03326324784233903
2016-12-16,-0.039301809283209026
2016-12-19,-0.037488635317528315
2016-12-20,-0.04503152264480356
2016-12-21,-0.047249188884123945
2016-12-22,-0.043112094442057054
2016-12-23,-0.034877357770920644
2016-12-26,-0.03609497945510096
2016-12-27,-0.028495396816231883
2016-12-28,-0.014661000317198886
2016-12-29,-0.011561641197627374
2016-12-30,-0.00970368225754683
2017-01-03,0.012710716904159342
2017-01-04,-0.0005626387767561358
2017-01-05,0.01583706056779773
2017-01-06,0.00012454017329907585
2017-01-09,0.005158746487337287
2017-01-10,0.008352916934852739
2017-01-11,0.00823240870217562
2017-01-12,0.015663778900066695
2017-01-13,0.02626731330778719
2017-01-16,0.03958017478440654
2017-01-17,0.017013793403927092
2017-01-18,0.018094263602653305
2017-01-19,0.026802967444195747
2017-01-20,0.014691125669476245
2017-01-23,0.023545653791741384
2017-01-24,0.022683562339057068
2017-01-25,0.009399629513128522
2017-01-26,0.012691792051182926
2017-02-03,0.01052484457998214
2017-02-06,-3.298209267804664e-05
2017-02-07,0.022025920345003207
2017-02-08,0.010546520135616013
2017-02-09,-0.00039778763921063264
2017-02-10,0.006514575633169975
2017-02-13,0.0056800610654682395
2017-02-14,-0.002661390803511389
2017-02-15,0.012472183796271631
2017-02-16,0.019027012436888313
2017-02-17,0.018941378722440005
2017-02-20,0.02367034003165792
2017-02-21,0.003817640014952335
2017-02-22,-0.003108296726378572
2017-02-23,0.002885341266500547
2017-02-24,0.02970476767113651
2017-02-27,0.028925682110622415
2017-02-28,0.02832312899775541
2017-03-01,0.03848304161094381
2017-03-02,0.05267559840952347
2017-03-03,0.0485264195155267
2017-03-06,0.045175244055234993
2017-03-07,0.04123314235795218
2017-03-08,0.04724822380193419
2017-03-09,0.05501732287710705
2017-03-10,0.047417321884319664
2017-03-13,0.06191057908143098
2017-03-14,0.057179435405063324
2017-03-15,0.0477352698464422
2017-03-16,0.04737056625163234
2017-03-17,0.0503462506812111
2017-03-20,0.033948273578271425
2017-03-21,0.024740549245691044
2017-03-22,0.04760803333671074
2017-03-23,0.04778265103047061
2017-03-24,0.036750283122142666
2017-03-27,0.042370911227933114
2017-03-28,0.03625939651440949
2017-03-29,0.036995020673484605
2017-03-30,0.03296530224635156
2017-03-31,0.03312550419352448
2017-04-05,0.04100280225574736
2017-04-06,0.04627035056528041
2017-04-07,0.038419618156582167
2017-04-10,0.035979239576914894
2017-04-11,0.03500327511982033
2017-04-12,0.030094256788507454
2017-04-13,0.023676650924706746
2017-04-14,0.024133883545468367
2017-04-17,0.03429245105921584
2017-04-18,0.031569736180029825
2017-04-19,0.021838502190211263
2017-04-20,0.012766412992053111
2017-04-21,-0.0010683447900969104
2017-04-24,-0.017462029735014907
2017-04-25,0.0066754890684739
2017-04-26,-0.005010690781160232
2017-04-27,-0.008675645443926301
2017-04-28,0.01481745182885428
2017-05-02,0.012345210779123025
2017-05-03,0.007117540061610979
2017-05-04,0.02114875053251101
2017-05-05,0.01666725041883981
2017-05-08,0.025987580602040226
2017-05-09,0.02482783578589496
2017-05-10,0.005034679477863305
2017-05-11,0.0045014785221235976
2017-05-12,0.022239024695480447
2017-05-15,0.018377718302467573
2017-05-16,0.023615736240255834
2017-05-17,0.007811308076291483
2017-05-18,0.010660778021877565
2017-05-19,0.011252373213690936
2017-05-22,0.0014339266217709423
2017-05-23,0.0024945888595112042
2017-05-24,0.012299095133340487
2017-05-25,0.008322701774452892
2017-05-26,0.02622870985853061
2017-05-31,0.02002955430479729
2017-06-01,0.004072835343673961
2017-06-02,0.024659660865161942
2017-06-05,0.01420640823238696
2017-06-06,-0.015891303661251147
2017-06-07,-0.0028286054986695897
2017-06-08,-0.012283163233172578
2017-06-09,-0.014196380226600067
2017-06-12,-0.016501223001646886
2017-06-13,-0.019597923966510958
2017-06-14,-0.016536974776869245
2017-06-15,-0.0024802047772866237
2017-06-16,0.001941373515861114
2017-06-19,-0.012493854069814778
2017-06-20,-0.005255200806058041
2017-06-21,-0.010301101727067774
2017-06-22,-0.0008122642108375211
2017-06-23,-0.0031835601905266936
2017-06-26,-0.0003113224527044045
2017-06-27,0.00324268013038366
2017-06-28,-0.0074216374053422685
2017-06-29,0.0020908393030399583
2017-06-30,0.005170894092166964
2017-07-03,0.014715659642861388
2017-07-04,-0.011915961042205221
2017-07-05,-0.009144813179585216
2017-07-06,0.0219720325509227
2017-07-07,0.023888939662491636
2017-07-10,0.014777351683057209
2017-07-11,-0.0026903113071070767
2017-07-12,-0.010235334489077999
2017-07-13,-0.01322103810762195
2017-07-14,-0.021917645156870967
2017-07-17,-0.023204888801972655
2017-07-18,-0.014228407656226655
2017-07-19,-0.013917128345037923
2017-07-20,-0.007363950463935412
2017-07-21,-0.018750663803857877
2017-07-24,-0.029274316997663426
2017-07-25,-0.013673588067829083
2017-07-26,-0.022346132223644254
2017-07-27,-0.009390561500050569
2017-07-28,-0.003123652654144396
2017-07-31,-0.003673854145012548
2017-08-01,0.0034540240626971044
2017-08-02,-0.011249560072039824
2017-08-03,-0.004495337908787915
2017-08-04,0.004195715508390402
2017-08-07,0.015216453208883464
2017-08-08,0.004010521701873375
2017-08-09,-0.0178800271012571
2017-08-10,-0.021699572768775592
2017-08-11,-0.00959230329532014
2017-08-14,-0.001017792538313328
2017-08-15,0.006188043704731805
2017-08-16,0.008422938659221148
2017-08-17,-0.0039101790983701035
2017-08-18,0.010175852979112707
2017-08-21,0.01645537300591582
2017-08-22,0.007892917951067183
2017-08-23,-0.003845258350590408
2017-08-24,-0.00725319560943042
2017-08-25,-0.00223189789990675
2017-08-28,0.02514938607890682
2017-08-29,0.025001957887344533
2017-08-30,0.00824161687755677
2017-08-31,0.014950522048295814
2017-09-01,0.013977267712092734
2017-09-04,0.012601154677477253
2017-09-05,0.030246197655940308
2017-09-06,0.024448519226745742
2017-09-07,0.021208640746300765
2017-09-08,0.011506190049213275
2017-09-11,0.004708793497432997
2017-09-12,0.014424202932363153
2017-09-13,0.016246214550794964
2017-09-14,0.031120881753381097
2017-09-15,0.018711987574900536
2017-09-18,0.021084578939755707
2017-09-19,0.020974636499488553
2017-09-20,0.03258205101668782
2017-09-21,0.02098324356737368
2017-09-22,0.010716403623288141
2017-09-25,0.02457445784183279
2017-09-26,0.006694953626483964
2017-09-27,0.004578093460294104
2017-09-28,0.02498824185092715
2017-09-29,0.017357192933542345
2017-10-09,0.029818369165457128
2017-10-10,0.02577128124294176
2017-10-11,0.02060189381642049
2017-10-12,0.03366533502832465
2017-10-13,0.03126987118562436
2017-10-16,0.039082760221025734
2017-10-17,0.02760854745679583
2017-10-18,0.03315995605443549
2017-10-19,0.028332195788672302
2017-10-20,0.030454051505140176
2017-10-23,0.02249131240040995
2017-10-24,0.0225964452302927
2017-10-25,0.021126283553960946
2017-10-26,0.02359695191300019
2017-10-27,0.024189109734162734
2017-10-30,0.016906892089811755
2017-10-31,0.024885995301384602
2017-11-01,0.02595265324814049
2017-11-02,0.0019822465178609347
2017-11-03,0.009294525744144785
2017-11-06,0.0007680667596421942
2017-11-07,0.007429010123526956
2017-11-08,0.017990820904792076
2017-11-09,0.023475219614991653
2017-11-10,0.013097653798475793
2017-11-13,0.017151599134286422
2017-11-14,0.011027749492567771
2017-11-15,0.008775694094901892
2017-11-16,0.017230722161752435
2017-11-17,-0.0010639937932398827
2017-11-20,-0.002327767199639577
2017-11-21,0.0010522082907777133
2017-11-22,-0.0001753167320568058
2017-11-23,-0.005862522318072744
2017-11-24,-0.002411327147187836
2017-11-27,-0.008185394687239597
2017-11-28,-0.00014696561430260768
2017-11-29,0.01399099677942451
2017-11-30,0.019049709337516187
2017-12-01,0.011811223668857743
2017-12-04,0.005157784694356101
2017-12-05,0.009400587796367526
2017-12-06,0.004728299767195363
2017-12-07,0.004847238349435618
2017-12-08,0.0061620897819942505
2017-12-11,0.0006512904926622072
2017-12-12,0.008900518704175348
2017-12-13,0.009021336682707642
2017-12-14,0.0012856976669062097
2017-12-15,0.011138420506716113
2017-12-18,0.01398762526101455
2017-12-19,0.017490610085931182
2017-12-20,0.005353682789506174
2017-12-21,0.018731933462819095
2017-12-22,0.008702744282490855
2017-12-25,-0.0084101295554323
2017-12-26,-0.001887131367107213
2017-12-27,-0.0007748596802245912
2017-12-28,-0.014259680577629616
2017-12-29,-0.016341126925284125
2018-01-02,-0.005751654219461451
2018-01-03,0.005785195001666618
2018-01-04,-0.000730804579130051
2018-01-05,0.0002447036937620606
2018-01-08,-0.00463223525408555
2018-01-09,-0.0044842829067760215
2018-01-10,-0.00964248361300421
2018-01-11,-0.014694604876896791
2018-01-12,-0.012942613391175986
2018-01-15,-0.024915575618780397
2018-01-16,-0.039259931906139245
2018-01-17,-0.019323668128093455
2018-01-18,-0.015974221905643002
2018-01-19,-0.016715380030280794
2018-01-22,-0.03444884625957889
2018-01-23,-0.03545599208183578
2018-01-24,-0.02142849773551983
2018-01-25,-0.013472774469985002
2018-01-26,-0.01860430045260293
2018-01-29,-0.023920119616431035
2018-01-30,-0.020526774207889745
2018-01-31,-0.03170227761006041
2018-02-01,-0.033241256790596474
2018-02-02,-0.03176025306316898
2018-02-05,-0.03206747089998218
2018-02-06,-0.046253442826704017
2018-02-07,-0.04353871396523841
2018-02-08,-0.03708429488719231
2018-02-09,-0.0453215834009668
2018-02-12,-0.028390116917359213
2018-02-13,-0.04790016068224139
2018-02-14,-0.06851196621173526
2018-02-22,-0.05345998287309108
2018-02-23,-0.05452129641299145
2018-02-26,-0.026294553933408148
2018-02-27,-0.015492483501029691
2018-02-28,-0.011937245953877906
2018-03-01,0.006651121563913877
2018-03-02,0.005818428348769555
2018-03-05,0.015195064615395465
2018-03-06,0.02306136296122946
2018-03-07,0.011532950163222123
2018-03-08,0.01466378004582438
2018-03-09,0.02238636366262209
2018-03-12,0.031764620163626744
2018-03-13,0.035350488530597586
2018-03-14,0.02939489699218751
2018-03-15,0.02672946481724807
2018-03-16,0.025197738382833255
2018-03-19,0.02638847930256582
2018-03-20,0.03981115647037796
2018-03-21,0.029555497801323563
2018-03-22,0.029435295803837996
2018-03-23,0.029563841867769135
2018-03-26,0.018285604813502998
2018-03-27,0.028539552944992053
2018-03-28,0.023707571521753124
2018-03-29,0.012101583779664901
2018-03-30,0.005375572070238491
2018-04-02,0.02353469385739443
2018-04-03,0.010091461218248651
2018-04-04,0.02101547619976453
2018-04-09,0.008836848049048177
2018-04-10,0.011162802779056749
2018-04-11,0.014094527432687978
2018-04-12,0.010076159077169966
2018-04-13,0.002202052648690306
2018-04-16,0.012071281019752245
2018-04-17,0.011226832168952386
2018-04-18,0.01781492761630339
2018-04-19,0.01779713417041394
2018-04-20,0.014245647599518803
2018-04-23,0.0032880389932350845
2018-04-24,0.011795157222558264
2018-04-25,2.9553646060428984e-05
2018-04-26,-5.171406893496322e-06
2018-04-27,0.004531998845647235
2018-05-02,-0.005442159066772312
2018-05-03,-0.013407607033448551
2018-05-04,-0.0032950853384563217
2018-05-07,-0.002917984848225738
2018-05-08,-0.0052707030980855135
2018-05-09,-0.0036561127156290313
2018-05-10,-0.011121820327430351
2018-05-11,-0.009145425556922201
2018-05-14,-0.01525348317275188
2018-05-15,-0.007078913091391387
2018-05-16,-0.016045085871269973
2018-05-17,-0.010317310114887762
2018-05-18,-0.004313633730095676
2018-05-21,0.003881511776141322
2018-05-22,0.025752797973036784
2018-05-23,0.024523786051767554
2018-05-24,0.013975684905089741
2018-05-25,0.013770391444465208
2018-05-28,0.021521516242426722
2018-05-29,-0.00029568989393566336
2018-05-30,0.01333246388286069
2018-05-31,0.010115735737711712
2018-06-01,0.014224528049133336
2018-06-04,0.010876129650834065
2018-06-05,0.014467202839944196
2018-06-06,0.012695711955440753
2018-06-07,0.011190802083649407
2018-06-08,0.010676130494178024
2018-06-11,0.014595827563180216
2018-06-12,0.027432111606336393
2018-06-13,0.02423619281636885
2018-06-14,0.01682107923537901
2018-06-15,0.014510223750693413
2018-06-19,-0.008733964212539191
2018-06-20,-0.023286973467495656
2018-06-21,-0.019705918940938552
2018-06-22,-0.02075049922325367
2018-06-25,-0.017305163769578163
2018-06-26,-0.026369539930790407
2018-06-27,-0.032962573934935714
2018-06-28,-0.026176010002395465
2018-06-29,-0.03078713701531855
2018-07-02,-0.03288253568224032
2018-07-03,-0.03192082723852551
2018-07-04,-0.025990012977691088
2018-07-05,-0.0200008831881023
2018-07-06,-0.01680559237817921
2018-07-09,-0.01499720919090513
2018-07-10,-0.017730259508879746
2018-07-11,-0.009625721577180196
2018-07-12,-0.004676667861897105
2018-07-13,-0.009839046488070158
2018-07-16,-0.009372042146340992
2018-07-17,-0.0076001894372504375
2018-07-18,0.0070401286329144774
2018-07-19,-0.00411106283596549
2018-07-20,0.016645881947654387
2018-07-23,0.023908495798352705
2018-07-24,0.021704667951609427
2018-07-25,0.0008287312181848167
2018-07-26,0.023481938770297195
2018-07-27,0.01527215303340096
2018-07-30,0.00913920875220943
2018-07-31,0.00509825297708956
2018-08-01,0.010975989908380585
2018-08-02,0.025552931560518213
2018-08-03,0.018580685861156052
2018-08-06,0.00973022237950089
2018-08-07,0.016295991857384284
2018-08-08,0.00439430258687782
2018-08-09,0.014726595822562562
2018-08-10,-0.007554545788688395
2018-08-13,-0.00660650180261553
2018-08-14,-0.003604802823952591
2018-08-15,-0.007442706450060963
2018-08-16,0.002867234059986923
2018-08-17,-0.027926259848693236
2018-08-20,-0.01648430185705737
2018-08-21,-0.01827052340498644
2018-08-22,-0.022358220585078938
2018-08-23,-0.011986076056092882
2018-08-24,-0.01365712904957192
2018-08-27,-0.011100625518633112
2018-08-28,-0.016252430478413397
2018-08-29,-0.018509486465727316
2018-08-30,-0.024492119644761366
2018-08-31,-0.018045908304353073
2018-09-03,-0.024659264087912816
2018-09-04,-0.015134547041570648
2018-09-05,-0.014016172361025345
2018-09-06,-0.012455594812228094
2018-09-07,-0.011030162050090515
2018-09-10,-0.013176630640891243
2018-09-11,-0.022016675758142572
2018-09-12,-0.011517388115847389
2018-09-13,-0.008299129069099376
2018-09-14,-0.011364432605885107
2018-09-17,-0.004657641565669387
2018-09-18,0.007880385704720723
2018-09-19,0.011147224760414541
2018-09-20,0.013070105448712531
2018-09-21,0.013774634512295866
2018-09-25,0.017324578137661306
2018-09-26,0.012556559578436793
2018-09-27,0.01240050400899148
2018-09-28,0.014869329427580916
2018-10-08,0.014272443523840522
2018-10-09,0.010229296319259867
2018-10-10,0.007215257957716263
2018-10-11,-0.025435542491651586
2018-10-12,-0.02744457558191777
2018-10-15,-0.021649839947151348
2018-10-16,-0.025393503834717387
2018-10-17,-0.023225031343521493
2018-10-18,-0.05439395832891685
2018-10-19,-0.03862601619065789
2018-10-22,-0.022658285159690025
2018-10-23,-0.014153149052289784
2018-10-24,0.0009465484716575773
2018-10-25,-0.0009904287741847005
2018-10-26,-0.004719378825420165
2018-10-29,0.0027902753470365436
2018-10-30,0.010424894114719665
2018-10-31,0.01157621319223285
2018-11-01,0.015220561152310505
2018-11-02,0.018246929133674435
2018-11-05,0.02013340349216612
2018-11-06,0.028368756678683573
2018-11-07,0.028556836395051757
2018-11-08,0.028157925211786096
2018-11-09,0.03275254385113402
2018-11-12,0.023086265882905313
2018-11-13,0.03850341083011362
2018-11-14,0.04027433146164023
2018-11-15,0.03779755247521689
2018-11-16,0.03147473630062775
2018-11-19,0.030154372470028095
2018-11-20,0.026269702030392465
2018-11-21,0.03067035470173001
2018-11-22,0.03775781693237337
2018-11-23,0.021454002042035403
2018-11-26,0.013028975728681724
2018-11-27,0.016643112399667995
2018-11-28,0.01229494987453969
2018-11-29,0.030506232916270748
2018-11-30,0.03271141626737681
2018-12-03,0.015129036334737805
2018-12-04,0.013847722156534348
2018-12-05,0.03001950718489614
2018-12-06,0.014910744987852609
2018-12-07,0.023697825262187
2018-12-10,0.016237668317363202
2018-12-11,0.021397402466697912
2018-12-12,0.021792078161117667
2018-12-13,0.004093013898259917
2018-12-14,-0.0027572997661472476
2018-12-17,0.003676602428314024
2018-12-18,-0.002831768259194567
2018-12-19,-0.01185886518033677
2018-12-20,-0.005039060234451831
2018-12-21,-0.014217258619701911
2018-12-24,-0.0016777292784706799
2018-12-25,-0.008702671894764202
2018-12-26,-0.023946479679621296
2018-12-27,-0.08345788807982413
2018-12-28,-0.104666808575204
2019-01-02,-0.10218167688610746
2019-01-03,-0.08611919324644365
2019-01-04,-0.08334682904559396
2019-01-07,-0.06526715579646142
2019-01-08,-0.06692742645560476
2019-01-09,-0.04431936618287474
2019-01-10,-0.05145007695819784
2019-01-11,-0.04745205800095367
2019-01-14,-0.0778297402441133
2019-01-15,-0.06459552580948538
2019-01-16,-0.068477869022527
2019-01-17,-0.06512492533985256
2019-01-18,-0.058807611109458535
2019-01-21,-0.05522543037470756
2019-01-22,-0.06826250598447059
2019-01-23,-0.0511023235941373
2019-01-24,-0.037692645278455145
2019-01-25,-0.028113852163974773
2019-01-28,-0.03142363494884559
2019-01-29,-0.019471035217253838
2019-01-30,-0.02387406883727744
2019-01-31,-0.02381413180995598
2019-02-01,-0.004311714047033052
2019-02-11,-7.878268020072854e-05
2019-02-12,0.0010780428475979376
2019-02-13,0.004920485108946403
2019-02-14,-0.001021882513146638
2019-02-15,-0.030346605130536844
2019-02-18,0.0023837879946242632
2019-02-19,0.0024365602667567113
2019-02-20,-0.0018726565648195803
2019-02-21,0.010626402063224384
2019-02-22,-0.00020149718484626516
2019-02-25,0.002655134290728847
2019-02-26,0.006777819971099587
2019-02-27,0.005251349703599457
2019-02-28,0.009887561118254076
2019-03-01,0.006622663877175656
2019-03-04,0.00351798765747309
2019-03-05,0.008814277259869462
2019-03-06,0.00502061649399578
2019-03-07,0.0014364851033649706
2019-03-08,0.004646326971736697
2019-03-11,0.0024354643469412032
2019-03-12,0.01294720710218155
2019-03-13,0.0027553197894913325
2019-03-14,0.0045135149703179125
2019-03-15,0.0006421488796718583
2019-03-18,0.0005974713140022153
2019-03-19,-0.002748883175183285
2019-03-20,0.009752345764442921
2019-03-21,0.004282024860935457
2019-03-22,0.0021051436487475733
2019-03-25,-0.007729949625039709
2019-03-26,-0.013448380246662
2019-03-27,-0.007060690481805097
2019-03-28,-0.01170155463407363
2019-03-29,-0.007269864749758819
2019-04-01,-0.00969463525922943
2019-04-02,-0.0023421397285113207
2019-04-03,-0.008180032273746807
2019-04-04,-0.00885148274287216
2019-04-08,0.0010825761278404622
2019-04-09,-0.0020894928223220074
2019-04-10,-0.0025917743620792674
2019-04-11,0.016820090482117456
2019-04-12,0.018821564598851898
2019-04-15,0.022207450925928816
2019-04-16,0.013703395281198641
2019-04-17,0.005456554423485402
2019-04-18,0.013061418733729055
2019-04-19,0.009013413890873734
2019-04-22,0.01146682480350255
2019-04-23,0.011182561638398994
2019-04-24,0.02057013147735921
2019-04-25,0.012484453958644719
2019-04-26,0.019129835188645965
2019-04-29,0.014967186958870586
2019-04-30,0.012298995468749845
2019-05-06,0.016120690172388853
2019-05-07,0.008712013014758671
2019-05-08,0.0058716350520992625
2019-05-09,0.00482537909162966
2019-05-10,0.0021568926525426454
2019-05-13,0.012490893335939356
2019-05-14,-0.0024880539745564274
2019-05-15,0.0010309701357164025
2019-05-16,0.007683005374818176
2019-05-17,0.01284413947778526
2019-05-20,0.008286056974467677
2019-05-21,0.010512000269613783
2019-05-22,0.012168824920513542
2019-05-23,0.010934523748249145
2019-05-24,0.011405252752695667
2019-05-27,0.012586132629101333
2019-05-28,0.015139731241415981
2019-05-29,0.014485805012390593
2019-05-30,0.006895405268166198
2019-05-31,0.0033247754934014676
2019-06-03,0.00864484379011806
2019-06-04,0.012378076282184895
2019-06-05,0.014315122795316479
2019-06-06,0.012285551018687446
2019-06-10,0.010566599218510692
2019-06-11,0.015875900500395515
2019-06-12,0.007080059215929989
2019-06-13,0.002415745787515265
2019-06-14,0.0014683357714393996
2019-06-17,0.010227664455554897
2019-06-18,-0.0026323096948764196
2019-06-19,0.0014014113860023256
2019-06-20,0.007193194804874126
2019-06-21,0.0077023596767179445
2019-06-24,0.008121714142331905
2019-06-25,0.00805749408321696
2019-06-26,0.007946827929717452
2019-06-27,0.012568198420241945
2019-06-28,0.0053657091924715
2019-07-01,0.011828560165610336
2019-07-02,0.0128448272964281
2019-07-03,0.030709947179078025
2019-07-04,0.02601462994775368
2019-07-05,0.02067586154362327
2019-07-08,0.01570483730691403
2019-07-09,0.015753439470826795
2019-07-10,0.011270962705981467
2019-07-11,0.002367312927042304
2019-07-12,0.00348725301087318
2019-07-15,0.011471738763701176
2019-07-16,0.01163814178581508
2019-07-17,0.021449044179728073
2019-07-18,0.012495927533638013
2019-07-19,0.011116304262320329
2019-07-22,-0.006131416997232398
2019-07-23,0.0007422437157332193
2019-07-24,0.006899906511304545
2019-07-25,0.008216327225520577
2019-07-26,-0.012921162978696651
2019-07-29,-0.010284814196767637
2019-07-30,0.004492877715423003
2019-07-31,0.00034529167369325153
2019-08-01,0.004755225693201824
2019-08-02,0.00603165521320953
2019-08-05,-0.0007164708715776957
2019-08-06,-0.003907198964758926
2019-08-07,0.011666139253963176
2019-08-08,0.00045875956927651784
2019-08-09,-0.0010364415090351256
2019-08-12,-0.007285792097526264
2019-08-13,-0.0013934013404850731
2019-08-14,-0.0034165579121004444
2019-08-15,-0.0037661204285941927
2019-08-16,-0.004494242418711117
2019-08-19,0.0031163913846416792
2019-08-20,0.000912595837993177
2019-08-21,0.003509436224325157
2019-08-22,-0.00444583495064901
2019-08-23,-0.008685758319410382
2019-08-26,-0.005586722748057431
2019-08-27,-0.004634847907091438
2019-08-28,-0.002662992391266647
2019-08-29,-0.003180157819781291
2019-08-30,-0.008672379557719663
2019-09-02,-0.003283178091433958
2019-09-03,-0.005614941584594484
2019-09-04,-0.001068900619384974
2019-09-05,-0.0005897463346612921
2019-09-06,-0.004672812634284797
2019-09-09,0.006115847909639588
2019-09-10,0.010261631537557821
2019-09-11,0.019451429511676957
2019-09-12,0.017643219379433698
2019-09-16,0.017497432454803064
2019-09-17,0.014187743152089448
2019-09-18,0.014598682548015957
2019-09-19,0.009590148150972647
2019-09-20,0.00816583030221179
2019-09-23,-0.0029314699194039166
2019-09-24,-0.00019097009268198573
2019-09-25,0.004644275318073335
2019-09-26,0.008598159038446483
2019-09-27,-0.0010178951247391682
2019-09-30,0.0025922734413230814
2019-10-08,0.004903973971932665
2019-10-09,0.009970780885538238
2019-10-10,0.0022492878956272555
2019-10-11,0.0023772746760824803
2019-10-14,0.0017392810997769736
2019-10-15,0.004844058456486847
2019-10-16,0.012394682365434492
2019-10-17,0.01274011507351036
2019-10-18,0.024090175965600466
2019-10-21,0.0231387735175069
2019-10-22,0.04130078212318147
2019-10-23,0.0346966104654239
2019-10-24,0.037453510648978464
2019-10-25,0.0442172584046073
2019-10-28,0.05950880358098677
2019-10-29,0.059637557045001774
2019-10-30,0.05299792731338296
2019-10-31,0.05696320745958529
2019-11-01,0.03745010798885113
2019-11-04,0.032009221726198855
2019-11-05,0.005497781171356834
2019-11-06,0.03372854998481557
2019-11-07,0.024082100905677552
2019-11-08,0.03181962191134784
2019-11-11,0.025458094622494674
2019-11-12,-0.010406332922154829
2019-11-13,0.016988016864003697
2019-11-14,0.017870873633508255
2019-11-15,0.02372375869346137
2019-11-18,0.029721626185748695
2019-11-19,0.033723992122001445
2019-11-20,0.04458780088428814
2019-11-21,0.051379663866074524
2019-11-22,0.06839683232757644
2019-11-25,0.07283452881444676
2019-11-26,0.07092518399255553
2019-11-27,0.06451837301915889
2019-11-28,0.08431785761957121
2019-11-29,0.0782823026744402
2019-12-02,0.07137355247612556
2019-12-03,0.06963710751878277
2019-12-04,0.06870480933168337
2019-12-05,0.07248250070036226
2019-12-06,0.062023714164565674
2019-12-09,0.054750822330232374
2019-12-10,0.05725257976500071
2019-12-11,0.07656952151207877
2019-12-12,0.05959116025159235
2019-12-13,0.07672652734989283
2019-12-16,0.08305286195051212
2019-12-17,0.09819686476755164
2019-12-18,0.08856212889070748
2019-12-19,0.0880735952623547
2019-12-20,0.08141992268842761
2019-12-23,0.08826276959367274
2019-12-24,0.09335375312712225
2019-12-25,0.08269099336155214
2019-12-26,0.07339624107009268
2019-12-27,0.080527590330227
2019-12-30,0.08973909489925853
2019-12-31,0.08730462997415862
2020-01-02,0.0850931481518447
2020-01-03,0.07889519924441152
2020-01-06,0.07556330992251593
2020-01-07,0.07070640050965035
2020-01-08,0.056189165934973494
2020-01-09,0.05523470576892543
2020-01-10,0.046229095313407076
2020-01-13,0.050483773358789674
2020-01-14,0.060108436615754234
2020-01-15,0.05092804429810444
2020-01-16,0.05455746431468928
2020-01-17,0.05440767158287423
2020-01-20,0.046924366308689305
2020-01-21,0.047828210711116925
2020-01-22,0.0366874318627786
2020-01-23,0.03703344440641462
2020-02-03,0.033381163136435944
2020-02-04,0.04256943029931366
2020-02-05,0.04390262640395367
2020-02-06,0.04834773083883305
2020-02-07,0.05419850439826171
2020-02-10,0.06122781876059122
2020-02-11,0.04764886753831474
2020-02-12,0.057446350696064956
2020-02-13,0.049317719176778824
2020-02-14,0.054117022266501946
2020-02-17,0.06387222585417995
2020-02-18,0.04380354010804049
2020-02-19,0.044752860385429465
2020-02-20,0.03354820845700073
2020-02-21,0.03201840830847561
2020-02-24,0.022574016930149543
2020-02-25,0.012596533659552038
2020-02-26,0.023033279005071045
2020-02-27,0.020432831439071472
2020-02-28,0.014726144170758874
2020-03-02,0.021088117058772005
2020-03-03,0.004191824869774142
2020-03-04,0.00812255993952336
2020-03-05,0.005677062887979846
2020-03-06,0.0005758639480984533
2020-03-09,0.004440661972209934
2020-03-10,0.0069465308571365295
2020-03-11,0.010115257593790884
2020-03-12,0.005416609182749606
2020-03-13,-0.011781677728643285
2020-03-16,0.010412827767679822
2020-03-17,0.009458688018670787
2020-03-18,-0.00454519916236433
2020-03-19,-0.021427652848123105
2020-03-20,-0.006408514838560031
2020-03-23,0.0071919785123011615
2020-03-24,0.04678827662523888
2020-03-25,0.04713107795966574
2020-03-26,0.039593501017561705
2020-03-27,0.04732570273049892
2020-03-30,0.062173317400749384
2020-03-31,0.05473417592564238
2020-04-01,0.03933568257852643
2020-04-02,0.028164736432589016
2020-04-03,0.007632545202980512
2020-04-07,0.012886225789764477
2020-04-08,0.00790003947435891
2020-04-09,0.007293070642759941
2020-04-10,0.026674249611405687
2020-04-13,0.036443714121138227
2020-04-14,0.02559698100451177
2020-04-15,0.024858084269485742
2020-04-16,0.0043225248417980144
2020-04-17,0.011805828442007504
2020-04-20,-0.010196797951019854
2020-04-21,8.598039872473318e-05
2020-04-22,0.009984651505156872
2020-04-23,0.03141668743423351
2020-04-24,0.028647816407116028
2020-04-27,0.024331051104164614
2020-04-28,0.015752492467144164
2020-04-29,0.024977393797265296
2020-04-30,0.03400457543511615
2020-05-06,0.024701130053945863
2020-05-07,0.01462702301631802
2020-05-08,0.008697988483513164
2020-05-11,0.029254166469099396
2020-05-12,0.002860430119516283
2020-05-13,-0.008168006283394147
2020-05-14,-0.014748675988554033
2020-05-15,-0.014829632861814573
2020-05-18,-0.018267279719590412
2020-05-19,-0.02414824369889576
2020-05-20,-0.010580599174063843
2020-05-21,-0.03204200754539943
2020-05-22,-0.03462953941771851
2020-05-25,-0.046221772955292784
2020-05-26,-0.042040127054420645
2020-05-27,-0.022758839926204227
2020-05-28,-0.014781361062314397
2020-05-29,-0.02329707228342262
2020-06-01,-0.0199506403374764
2020-06-02,-0.005602944336250609
2020-06-03,-0.009129361392694546
2020-06-04,-0.016386324390697926
2020-06-05,-0.02027251596646243
2020-06-08,-0.014789069279204425
2020-06-09,-0.013433345925113693
2020-06-10,-0.026320175543613517
2020-06-11,-0.03285957127195155
2020-06-12,-0.047550693801705846
2020-06-15,-0.04889633094720579
2020-06-16,-0.0515698129551137
2020-06-17,-0.04136676508571026
2020-06-18,-0.039143469872288894
2020-06-19,-0.05032070787768629
2020-06-22,-0.06329903527643285
2020-06-23,-0.07835995854630799
2020-06-24,-0.08681324997571493
2020-06-29,-0.0867946837532468
2020-06-30,-0.08005519574673885
2020-07-01,-0.05477425078397857
2020-07-02,-0.03585577291120377
2020-07-03,-0.03142907138153798
2020-07-06,-0.025123022904054944
2020-07-07,-0.02688891495040943
2020-07-08,-0.0329227710429724
2020-07-09,-0.03362350751016815
2020-07-10,-0.03405304346681566
2020-07-13,-0.02976431471777305
2020-07-14,-0.03272233394469936
2020-07-15,-0.027773886679016774
2020-07-16,-0.017773337078411305
2020-07-17,-0.01589508666793433
2020-07-20,-0.00839812072893212
2020-07-21,-0.008842391748149273
2020-07-22,-0.010755860919990859
2020-07-23,-0.010455180549449359
2020-07-24,-0.005700504738111277
2020-07-27,-0.007278414986543465
2020-07-28,-0.0017987737245405144
2020-07-29,-0.004755321317016345
2020-07-30,-0.007621570098739588
2020-07-31,-0.007558128742173126
2020-08-03,-0.024581712917839144
2020-08-04,-0.02282783179826335
2020-08-05,-0.03182844946354486
2020-08-06,-0.029211510856862848
2020-08-07,-0.02279664331841893
2020-08-10,-0.030155599972806882
2020-08-11,-0.03972510482565733
2020-08-12,-0.025997119142019406
2020-08-13,-0.014124865768956326
2020-08-14,-0.0357491646139306
2020-08-17,-0.038829999315938515
2020-08-18,-0.044679683036572826
2020-08-19,-0.029671685377121202
2020-08-20,-0.03252857803643937
2020-08-21,-0.04176018556869129
2020-08-24,-0.04549979516446579
2020-08-25,-0.05297156809763551
2020-08-26,-0.05362854603499783
2020-08-27,-0.06127546022416166
2020-08-28,-0.07018253494632627
2020-08-31,-0.06389164615186928
2020-09-01,-0.06416642104201706
2020-09-02,-0.059372076703118996
2020-09-03,-0.05295745468214175
2020-09-04,-0.03873435232834014
2020-09-07,-0.02190149250731791
2020-09-08,-0.016025160097778237
2020-09-09,-0.004152618100836891
2020-09-10,-0.010488463625540213
2020-09-11,-0.009409784605335307
2020-09-14,-0.005998904155705274
2020-09-15,-0.00705992794708156
2020-09-16,-0.0013365276802883921
2020-09-17,-0.012595143712704288
2020-09-18,-0.004364803990373568
2020-09-21,0.008427417281737501
2020-09-22,-0.0025021147901657798
2020-09-23,-0.012791970205773995
2020-09-24,-0.019648363933161883
2020-09-25,-0.015658394158645672
2020-09-28,-0.010793600674103634
2020-09-29,-0.02619082552712456
2020-09-30,-0.027208811521451534
2020-10-09,-0.02651590079925986
2020-10-12,-0.020368482143437304
2020-10-13,-0.02761523430870469
2020-10-14,-0.02916668523849547
2020-10-15,-0.03202868533853963
2020-10-16,-0.029351922444734585
2020-10-19,-0.03211107710456702
2020-10-20,-0.04309785943469724
2020-10-21,-0.038119208222811146
2020-10-22,-0.03967784379116758
2020-10-23,-0.01594851369409632
2020-10-26,-0.04681364428138306
2020-10-27,-0.029968592381507828
2020-10-28,-0.021094724891696504
2020-10-29,-0.016616940565239033
2020-10-30,-0.02503774684317353
2020-11-02,-0.01915743537292605
2020-11-03,-0.006664034474894956
2020-11-04,-0.012546957279680873
2020-11-05,-9.331767675131719e-05
2020-11-06,0.011466408091992605
2020-11-09,0.011628027121064956
2020-11-10,0.014983055792570477
2020-11-11,0.032879910330611585
2020-11-12,0.036952203746597044
2020-11-13,0.03037570062437346
2020-11-16,0.05810514913802725
2020-11-17,0.05835053077056336
2020-11-18,0.03790308627166372
2020-11-19,0.016071882854573172
2020-11-20,-0.0010394774712609994
2020-11-23,0.0093863733039692
2020-11-24,0.011938912099445767
2020-11-25,-0.006554813901150841
2020-11-26,0.012381943351678464
2020-11-27,0.01631875930971896
2020-11-30,0.011778106050541574
2020-12-01,0.006063502992746522
2020-12-02,-0.0023597175775167713
2020-12-03,-0.010547956073177121
2020-12-04,-0.0272074125682158
2020-12-07,-0.04053343735029197
2020-12-08,-0.038565951119987986
2020-12-09,-0.036168490099196246
2020-12-10,-0.0349367663514681
2020-12-11,-0.04022929783934933
2020-12-14,-0.04430222098272214
2020-12-15,-0.04161218854902271
2020-12-16,-0.04402549618049628
2020-12-17,-0.03441893475464264
2020-12-18,-0.03933298380986284
2020-12-21,-0.03314736526205863
2020-12-22,-0.03629267744146513
2020-12-23,-0.03618335346594717
2020-12-24,-0.03956007968844404
2020-12-25,-0.04175050524395636
2020-12-28,-0.05075887319086856
2020-12-29,-0.0489369137735668
2020-12-30,-0.05660126988100181
2020-12-31,-0.04923066468927355
2021-01-04,-0.0629315463355232
2021-01-05,-0.08598546361938056
2021-01-06,-0.08369633878603074
2021-01-07,-0.09503837478668234
2021-01-08,-0.09458953795154336
2021-01-11,-0.08062316507792841
2021-01-12,-0.09419689918077981
2021-01-13,-0.09836475891585746
2021-01-14,-0.09431230692543854
2021-01-15,-0.08217956718060036
2021-01-18,-0.08161898476831579
2021-01-19,-0.05729453617805602
2021-01-20,-0.08343726446255967
2021-01-21,-0.07235237955586538
2021-01-22,-0.08756108414513117
2021-01-25,-0.1016022610395297
2021-01-26,-0.09061537891263483
2021-01-27,-0.08801160165852427
2021-01-28,-0.07946126957061214
2021-01-29,-0.09900333982650303
2021-02-01,-0.10673793597111988
2021-02-02,-0.12145382583849088
2021-02-03,-0.10723047159037968
2021-02-04,-0.10302919211634347
2021-02-05,-0.09840636794452777
2021-02-08,-0.0997104598921233
2021-02-09,-0.08521486670524132
2021-02-10,-0.10452064011059792
2021-02-18,-0.07129748581154634
2021-02-19,-0.047854629792990225
2021-02-22,-0.027935112112182886
2021-02-23,-0.017164055752332128
2021-02-24,-0.012445797534793072
2021-02-25,0.007244038428847613
2021-02-26,-0.0012014260457476889
2021-03-01,-0.0044879974566275245
2021-03-02,0.001340795424032773
2021-03-03,0.009963310651128505
2021-03-04,0.023347782438539657
2021-03-05,0.013524253893754203
2021-03-08,0.04080093895926224
2021-03-09,0.041592269927606375
2021-03-10,0.01874593703462693
2021-03-11,0.018514888480428954
2021-03-12,0.019636886030594762
2021-03-15,0.02719200170934405
2021-03-16,0.025387031988241125
2021-03-17,0.013759338125082517
2021-03-18,0.015848457905237204
2021-03-19,0.030321670516658718
2021-03-22,0.03701777008197039
2021-03-23,0.03622710985524661
2021-03-24,0.024304100587479886
2021-03-25,0.02924997270233226
2021-03-26,0.035011312664804214
2021-03-29,0.044066970279181564
2021-03-30,0.042160776074026476
2021-03-31,0.05427313272595768
2021-04-01,0.051510614069377
2021-04-02,0.03899720822980135
2021-04-06,0.05833369403545053
2021-04-07,0.051665173971169986
2021-04-08,0.05956619011745633
2021-04-09,0.06937583701435664
2021-04-12,0.05741061941334097
2021-04-13,0.06084437446015582
2021-04-14,0.051102564978061926
2021-04-15,0.04800437431746165
2021-04-16,0.07000036494998738
2021-04-19,0.06559029759668651
2021-04-20,0.0678608935867427
2021-04-21,0.06656424622936437
2021-04-22,0.07309488337168579
2021-04-23,0.07055428980768313
2021-04-26,0.06432876926704523
2021-04-27,0.06222126096576048
2021-04-28,0.05753305143602976
2021-04-29,0.07978324941733617
2021-04-30,0.07682211663151907
2021-05-06,0.07008110708109058
2021-05-07,0.0671858226334367
2021-05-10,0.05757090435154735
2021-05-11,0.07836436135967777
2021-05-12,0.0862904653756615
2021-05-13,0.08151231900051849
2021-05-14,0.07771139745572318
2021-05-17,0.06254982485884536
2021-05-18,0.06656523736595822
2021-05-19,0.049852669376676935
2021-05-20,0.061858499814863174
2021-05-21,0.06417756321618795
2021-05-24,0.04950551716061708
2021-05-25,0.04529915328344436
2021-05-26,0.057030609978089654
2021-05-27,0.045793544359004026
2021-05-28,0.049037105917457066
2021-05-31,0.04904551439606917
2021-06-01,0.04814675951864388
2021-06-02,0.05920001836084328
2021-06-03,0.05972184312657119
2021-06-04,0.060056850237539025
2021-06-07,0.05141754293019261
2021-06-08,0.04358178984623247
2021-06-09,0.03104592933723345
2021-06-10,-0.001277919769347071
2021-06-11,0.013827875184904232
2021-06-15,0.012809697103857189
2021-06-16,0.02455703649760119
2021-06-17,0.010017241079494546
2021-06-18,0.01354005168881637
2021-06-21,0.01015677104683143
2021-06-22,0.01785932921454929
2021-06-23,0.025879895921159038
2021-06-24,0.027822246241654202
2021-06-25,0.022283590957257127
2021-06-28,0.018652052301809326
2021-06-29,-0.002935458550625867
2021-06-30,0.012107042512758508
2021-07-01,0.029867066529301576
2021-07-02,0.03011637464022276
2021-07-05,0.010822580583737907
2021-07-06,0.021554272657209432
2021-07-07,0.011876003987883337
2021-07-08,-0.002859846070962543
2021-07-09,0.003166883665499949
2021-07-12,0.002910857875365519
2021-07-13,0.011722370537522769
2021-07-14,0.013020405717573588
2021-07-15,0.0031841391200754347
2021-07-16,0.010703797377056184
2021-07-19,-0.007316929539555355
2021-07-20,-0.001495699910952522
2021-07-21,-0.012477461834410477
2021-07-22,-0.012096680054457352
2021-07-23,-0.007111377723079316
2021-07-26,-0.013372882952012268
2021-07-27,-0.0077805336581556715
2021-07-28,-0.011893091949684534
2021-07-29,-0.03213354443934235
2021-07-30,-0.029129025470991728
2021-08-02,-0.03064650597073406
2021-08-03,-0.01228196186148986
2021-08-04,-0.030197363231135192
2021-08-05,-0.02850784393470062
2021-08-06,-0.02031781713118191
2021-08-09,-0.012380771069009061
2021-08-10,-0.011729194154854444
2021-08-11,-0.014674357687563444
2021-08-12,-0.0319164195339265
2021-08-13,-0.032539679599654966
2021-08-16,-0.015083736853981847
2021-08-17,-0.006489688645065966
2021-08-18,-0.013951807136881857
2021-08-19,-0.009588431341217472
2021-08-20,-0.0051199141129646825
2021-08-23,-0.012202742685139378
2021-08-24,-0.012580036312734575
2021-08-25,-0.00482705481417659
2021-08-26,0.0004070961938016718
2021-08-27,0.002730094545881013
2021-08-30,-0.004534819465045602
2021-08-31,-0.00432402131074153
2021-09-01,0.01622749405669687
2021-09-02,0.025523369161031373
2021-09-03,0.020942640653451975
2021-09-06,0.0181798276678396
2021-09-07,0.021496198008707893
2021-09-08,0.02852384784874879
2021-09-09,0.01323720384383079
2021-09-10,0.01619513876520417
2021-09-13,0.012171123127127939
2021-09-14,0.00299076883067819
2021-09-15,-0.0047965275733906285
2021-09-16,0.002772160160636813
2021-09-17,-0.002316279095008992
2021-09-22,-0.013833083961673383
2021-09-23,-0.008525882444122548
2021-09-24,-0.014107452470762564
2021-09-27,0.0014993044250853813
2021-09-28,-0.0033657334525479515
2021-09-29,0.0031959446739497936
2021-09-30,-0.0001205041560570358
2021-10-08,-0.007142505364582104
2021-10-11,-0.007736917538986059
2021-10-12,-0.006951614254457818
2021-10-13,0.000163782517023146
2021-10-14,-0.003999755460965605
2021-10-15,-0.01265284590873933
2021-10-18,-0.008070965517724467
2021-10-19,-0.014377821247750859
2021-10-20,-0.007960776843284716
2021-10-21,-0.014816662435767618
2021-10-22,-0.008576629602261202
2021-10-25,-0.00652590348169341
2021-10-26,-0.0008139848157493676
2021-10-27,-0.019410438300640286
2021-10-28,-0.00881708491798937
2021-10-29,0.0014989932888292666
2021-11-01,0.0014137203219831834
2021-11-02,0.00674961215503752
2021-11-03,0.012713956362756948
2021-11-04,0.00039337040723672057
2021-11-05,0.002743047667175487
2021-11-08,-0.010854995001720796
2021-11-09,-0.025749344029820875
2021-11-10,-0.023330654279931196
2021-11-11,-0.018193009972635045
2021-11-12,-0.009120133253373353
2021-11-15,0.008175964235897705
2021-11-16,0.008961215929003119
2021-11-17,0.020979357949116553
2021-11-18,0.005114738663378748
2021-11-19,0.00955404825843998
2021-11-22,0.009322791551706691
2021-11-23,0.016736441062767574
2021-11-24,0.02688007697789631
2021-11-25,0.024268523289909
2021-11-26,0.02773891435256666
2021-11-29,0.010811621559838058
2021-11-30,-0.00018355321108973893
2021-12-01,0.014214527058667048
2021-12-02,0.009388271337315068
2021-12-03,0.01307584934484017
2021-12-06,0.022611428358603775
2021-12-07,0.03163597942389093
2021-12-08,0.0329913369772311
2021-12-09,0.04017469688281941
2021-12-10,0.044537655486646
2021-12-13,0.05048258001329475
2021-12-14,0.04388197731277957
2021-12-15,0.009955728543017253
2021-12-16,0.01879702436138128
2021-12-17,0.01509704074616347
2021-12-20,0.015315820853358142
2021-12-21,0.0005700199788535726
2021-12-22,0.005128061974172787
2021-12-23,0.015617754687281576
2021-12-24,0.015198896600071718
2021-12-27,0.020273041771224548
2021-12-28,0.013971140138726024
2021-12-29,0.0004077296551512344
2021-12-30,-0.0055465481338095035
2021-12-31,-0.005139897137310348
2022-01-04,0.0011657690285806627
2022-01-05,-0.0018349009564113256
2022-01-06,0.007260326989022944
2022-01-07,0.01856409664150327
2022-01-10,0.02135681727198617
2022-01-11,0.023040939019470824
2022-01-12,0.023893781444955145
2022-01-13,0.03508042875106762
2022-01-14,0.03100421589752564
2022-01-17,0.02616137432399812
2022-01-18,0.0322728798815925
2022-01-19,0.02173165712217559
2022-01-20,0.03676699151456281
2022-01-21,0.037679474124344164
2022-01-24,0.03106733706635667
2022-01-25,0.009692151902949198
2022-01-26,0.0038689065517452104
2022-01-27,0.0029073624123994307
2022-01-28,0.009244744830761722
2022-02-07,0.03419734621201592
2022-02-08,0.03513426916137245
2022-02-09,0.03847522527460802
2022-02-10,0.04376132217555721
2022-02-11,0.03303917697904825
2022-02-14,0.03177071456647959
2022-02-15,0.029149934110497044
2022-02-16,0.03816025851680023
2022-02-17,0.04569826587451145
2022-02-18,0.034821130816167334
2022-02-21,0.04109901896814691
2022-02-22,0.03634686776053499
2022-02-23,0.03168828220965414
2022-02-24,0.026282324024480025
2022-02-25,0.025588293387943176
2022-02-28,0.016623595975221395
2022-03-01,0.020975850231969156
2022-03-02,0.022348868364118563
2022-03-03,0.028666524935570925
2022-03-04,0.023153348718308958
2022-03-07,0.010125013686089777
2022-03-08,-0.004532023415086
2022-03-09,-0.021060163272955033
2022-03-10,-0.01631541499486463
2022-03-11,-0.006698194680425642
2022-03-14,-0.019532149819244504
2022-03-15,-0.04563283446319055
2022-03-16,-0.02153043043054581
2022-03-17,-0.0019987731451166346
2022-03-18,0.0013918533626198267
2022-03-21,-0.0055319282393158295
2022-03-22,-0.0026229893095294473
2022-03-23,0.01004658749733876
2022-03-24,-0.000447470696416501
2022-03-25,0.0024098254884583475
2022-03-28,0.008499610652573472
2022-03-29,0.0029340443299854108
2022-03-30,0.010028296116771612
2022-03-31,0.0049578183991767465
2022-04-01,0.0036793341064812225
2022-04-06,0.013374542790339262
2022-04-07,0.007089468140360378
2022-04-08,0.01198683015351927
2022-04-11,0.0029640168789079463
2022-04-12,0.010788283300355823
2022-04-13,0.007047658762760853
2022-04-14,0.00850166045974329
2022-04-15,0.004881334829810922
2022-04-18,0.0055113420413006944
2022-04-19,-0.0003575793112325018
2022-04-20,0.0003898020366422811
2022-04-21,-0.002039384873675887
2022-04-22,-0.010887350129004714
2022-04-25,-0.00992838130603274
2022-04-26,0.004719219263685875
2022-04-27,0.00022425641826975817
2022-04-28,0.010189706733802692
2022-04-29,0.02694074081946564
2022-05-05,0.028228689110103802
2022-05-06,0.02547760241315121
2022-05-09,0.024363506317182378
2022-05-10,0.015690492368643415
2022-05-11,0.021827600185817225
2022-05-12,0.013688839699901076
2022-05-13,0.026145436286364544
2022-05-16,0.033315817244696094
2022-05-17,0.03928319468311914
2022-05-18,0.03258235678946377
2022-05-19,0.01847154205525358
2022-05-20,0.027284410557732133
2022-05-23,0.027579084228287074
2022-05-24,0.020111222952698002
2022-05-25,0.03771275763462601
2022-05-26,0.030439617329815594
2022-05-27,0.034290543412747274
2022-05-30,0.03762087879349752
2022-05-31,0.03600435443404584
2022-06-01,0.031027809965233098
2022-06-02,0.02338638897121149
2022-06-06,0.02493341399278145
2022-06-07,0.025515767764571408
2022-06-08,0.0193603974396269
2022-06-09,0.025259663424310293
2022-06-10,0.018762937429876725
2022-06-13,0.013709599144925748
2022-06-14,0.025887701854322074
2022-06-15,0.043817005220233386
2022-06-16,0.044133721151796146
2022-06-17,0.026786520180649524
2022-06-20,0.02804659211216304
2022-06-21,0.03746180960050227
2022-06-22,0.02591802369867041
2022-06-23,0.01329151963158555
2022-06-24,0.011002340679039352
2022-06-27,0.015039411396384997
2022-06-28,0.012173874240855392
2022-06-29,0.023611996100238924
2022-06-30,0.016978061536306474
2022-07-01,0.01765057069670993
2022-07-04,0.011355512535814974
2022-07-05,0.0009148106534345168
2022-07-06,0.0023090759215684126
2022-07-07,-0.004565531406979573
2022-07-08,-0.006519042586549423
2022-07-11,-0.007993503119334791
2022-07-12,-0.00505173365133002
2022-07-13,-0.011784037566321015
2022-07-14,-0.023748210808179182
2022-07-15,-0.026319801750111206
2022-07-18,-0.017913989513413622
2022-07-19,-0.011777642943110442
2022-07-20,-0.00863709074267388
2022-07-21,-0.01047605405535651
2022-07-22,-0.0017676029770749419
2022-07-25,0.0033438567090960797
2022-07-26,0.005403281938859
2022-07-27,-0.007310553600410108
2022-07-28,-0.0005111063886749645
2022-07-29,-0.006909797486412919
2022-08-01,-0.017628082022247388
2022-08-02,-0.02032021492660812
2022-08-03,-0.004068156148603258
2022-08-04,-0.00024708705339421266
2022-08-05,0.0009493960862704126
2022-08-08,0.0030262374792824065
2022-08-09,-0.0032314974763428955
2022-08-10,-0.016965542242837403
2022-08-11,-0.017470841387555856
2022-08-12,-0.024766343104023973
2022-08-15,-0.035134607872229266
2022-08-16,-0.045488103290940565
2022-08-17,-0.04453392948101816
2022-08-18,-0.05689103429700522
2022-08-19,-0.05372461634019775
2022-08-22,-0.055688719064424956
2022-08-23,-0.059561348073665095
2022-08-24,-0.06095890047275705
2022-08-25,-0.04987400935259676
2022-08-26,-0.04111263542947344
2022-08-29,-0.051437401754922445
2022-08-30,-0.049423154896434854
2022-08-31,-0.036487746212549126
2022-09-01,-0.040731154644094
2022-09-02,-0.052546918726380884
2022-09-05,-0.05153294546562877
2022-09-06,-0.053553577752454166
2022-09-07,-0.07067424202167226
2022-09-08,-0.07200064896361971
2022-09-09,-0.062331106844832014
2022-09-13,-0.0643640679806596
2022-09-14,-0.06763981026590997
2022-09-15,-0.058745140703583776
2022-09-16,-0.06886867319714848
2022-09-19,-0.06704173914864185
2022-09-20,-0.06431814148603783
2022-09-21,-0.07077032436967559
2022-09-22,-0.08268314037089897
2022-09-23,-0.08945858401589547
2022-09-26,-0.08863900316599717
2022-09-27,-0.07456730231201848
2022-09-28,-0.08626041257012422
2022-09-29,-0.0870884854821592
2022-09-30,-0.08855386990714964
2022-10-10,-0.10630027249493422
2022-10-11,-0.12899537494577698
2022-10-12,-0.12220130596378134
2022-10-13,-0.11955261329814346
2022-10-14,-0.11295169822540149
2022-10-17,-0.11074696114593495
2022-10-18,-0.10904471405130267
2022-10-19,-0.10535666746346928
2022-10-20,-0.10483272481057251
2022-10-21,-0.09421025449769906
2022-10-24,-0.11113731553276321
2022-10-25,-0.10753587305429863
2022-10-26,-0.09816420296273744
2022-10-27,-0.08937384355385532
2022-10-28,-0.08979421360503287
2022-10-31,-0.09231187347843235
2022-11-01,-0.07537089360537634
2022-11-02,-0.070492439172097
2022-11-03,-0.07623250966816189
2022-11-04,-0.0653688605919854
2022-11-07,-0.05631248827434922
2022-11-08,-0.046902121104599605
2022-11-09,-0.04362254660695769
2022-11-10,-0.04728525403146444
2022-11-11,-0.03290955997756897
2022-11-14,-0.037765444927154015
2022-11-15,-0.03677566044118106
2022-11-16,-0.035144018830234644
2022-11-17,-0.02742638128919484
2022-11-18,-0.030125258110557843
2022-11-21,-0.02456133702432041
2022-11-22,-0.022138685646094572
2022-11-23,-0.01850453316085615
2022-11-24,-0.023355544121116324
2022-11-25,-0.01957817866390433
2022-11-28,-0.023725535234899765
2022-11-29,-0.018661828862189263
2022-11-30,-0.022387274548603793
2022-12-01,-0.016086569297430076
2022-12-02,-0.01472035451552859
2022-12-05,-0.01396076606257396
2022-12-06,-0.01701753098524136
2022-12-07,-0.018620705628831204
2022-12-08,-0.024535739572092326
2022-12-09,-0.02787629750050248
2022-12-12,-0.021887472786943023
2022-12-13,-0.02521362691714989
2022-12-14,-0.019582432822494594
2022-12-15,-0.01785692767863697
2022-12-16,-0.02341626148571666
2022-12-19,-0.025619464637923278
2022-12-20,-0.031034338063370442
2022-12-21,-0.03957413914867094
2022-12-22,-0.05267170726544001
2022-12-23,-0.05495135226028208
2022-12-26,-0.045089170950864364
2022-12-27,-0.044691595224135836
2022-12-28,-0.04543850841368203
2022-12-29,-0.049367092055026776
2022-12-30,-0.05102645535577918
2023-01-03,-0.048565444948215686
2023-01-04,-0.04944214470896753
2023-01-05,-0.04314335017925166
2023-01-06,-0.04597115679889346
2023-01-09,-0.0408538702773433
2023-01-10,-0.05207663497754071
2023-01-11,-0.04926720887841438
2023-01-12,-0.05440278440063679
2023-01-13,-0.05390642985720659
2023-01-16,-0.04801287822539311
2023-01-17,-0.053444067684110835
2023-01-18,-0.06426377755865804
2023-01-19,-0.05234601065994107
2023-01-20,-0.05023806873574442
2023-01-30,-0.05235395955819078
2023-01-31,-0.03840759977278657
2023-02-01,-0.03654857773013705
2023-02-02,-0.0395393467938964
2023-02-03,-0.05023880178891326
2023-02-06,-0.04388437450638023
2023-02-07,-0.04769825092507523
2023-02-08,-0.05025012527789006
2023-02-09,-0.03687405282521934
2023-02-10,-0.0319996064125579
2023-02-13,-0.029047946302173486
2023-02-14,-0.01505618648327247
2023-02-15,-0.018767036772284272
2023-02-16,-0.025464682716591466
2023-02-17,-0.011442204059020142
2023-02-20,0.006054314019199241
2023-02-21,0.009591127096402271
2023-02-22,0.008526073322972194
2023-02-23,0.0104710472910494
2023-02-24,0.0017404798552393096
2023-02-27,0.014722761287154983
2023-02-28,0.015489926587088202
2023-03-01,0.018521638160251225
2023-03-02,0.03415699048157867
2023-03-03,0.040371894575785265
2023-03-06,0.04849487524076356
2023-03-07,0.05412019832115595
2023-03-08,0.047066377762848666
2023-03-09,0.04862389812786763
2023-03-10,0.04665919604435384
2023-03-13,0.051895859563938884
2023-03-14,0.048004979777940576
2023-03-15,0.05532127609083711
2023-03-16,0.05034852831519511
2023-03-17,0.03234682627031302
2023-03-20,0.03655347903496399
2023-03-21,0.04740310413798039
2023-03-22,0.050335257721616365
2023-03-23,0.04163832684388461
2023-03-24,0.03293763537683389
2023-03-27,0.040527873765538146
2023-03-28,0.03508293269048239
2023-03-29,0.03695680170068292
2023-03-30,0.03373693189768011
2023-03-31,0.022427964545737013
2023-04-03,0.010050642977637768
2023-04-04,-0.0006416087657543021
2023-04-06,0.003386233950785862
2023-04-07,-0.004529456541194923
2023-04-10,0.005328849793688507
2023-04-11,-0.0017433526346140385
2023-04-12,-0.019858372752330232
2023-04-13,-0.009891827542084099
2023-04-14,-0.0024078833764852037
2023-04-17,0.008505751877106713
2023-04-18,0.002081148398038392
2023-04-19,0.002610851227847155
2023-04-20,-0.03401610933893562
2023-04-21,-0.025468572661481805
2023-04-24,-0.029614524921118834
2023-04-25,-0.03343708891371718
2023-04-26,-0.024676376050213382
2023-04-27,-0.028218035146036262
2023-04-28,-0.04656075842343178
2023-05-04,-0.04898828978188226
2023-05-05,-0.03876341017008547
2023-05-08,-0.03348333529506863
2023-05-09,-0.04206662394107892
2023-05-10,-0.0319875672601281
2023-05-11,-0.025986112863674887
2023-05-12,-0.019289636881748284
2023-05-15,-0.017480610820440504
2023-05-16,-0.006240245018955785
2023-05-17,-0.009242196709368013
2023-05-18,-0.016131651530110702
2023-05-19,-0.010596402478435026
2023-05-22,-0.005553301382359776
2023-05-23,-0.0022909088617289863
2023-05-24,-0.00039251493032429335
2023-05-25,-0.00528535016071046
2023-05-26,-0.0017527007169725016
2023-05-29,-8.768930835075656e-05
2023-05-30,-0.016518065123754103
2023-05-31,-0.023954094706349374
2023-06-01,-0.024968726247706952
2023-06-02,-0.01397588213984725
2023-06-05,-0.009015607851120221
2023-06-06,-0.011561146376599067
2023-06-07,-0.012641390335930676
2023-06-08,-0.0090316936421032
2023-06-09,-0.02205996372704232
2023-06-12,-0.017551086024512632
2023-06-13,-0.02248027679774929
2023-06-14,-0.023520971054486764
2023-06-15,-0.020127624528352893
2023-06-16,-0.024208149690744807
2023-06-19,-0.030420129723413236
2023-06-20,-0.036235333959298524
2023-06-21,-0.04336213262262836
2023-06-26,-0.041341174534355846
2023-06-27,-0.03897063541400693
2023-06-28,-0.035369730411402026
2023-06-29,-0.03321037855227677
2023-06-30,-0.02900929775384381
2023-07-03,-0.019707661994016516
2023-07-04,-0.02435458294232863
2023-07-05,-0.02598109581284208
2023-07-06,-0.024926628591729526
2023-07-07,-0.022624911291241757
2023-07-10,-0.019887132065882822
2023-07-11,-0.019122028366509128
2023-07-12,-0.017061645430035438
2023-07-13,-0.017171659725423734
2023-07-14,-0.024110434095015752
2023-07-17,-0.021641711718150707
2023-07-18,-0.015176420184821349
2023-07-19,-0.01253869244644261
2023-07-20,-0.005013570310335433
2023-07-21,-0.0015009851348912612
2023-07-24,-0.006801430247049628
2023-07-25,0.005615517213472643
2023-07-26,0.010010195806776312
2023-07-27,0.004504692208633684
2023-07-28,0.0046787849307917545
2023-07-31,0.005513590288344222
2023-08-01,0.0036364509253906663
2023-08-02,0.009772551667393811
2023-08-03,0.011974959232918012
2023-08-04,0.011758788187608143
2023-08-07,0.014226889143787079
2023-08-08,0.015844929392453272
2023-08-09,0.01991305862044978
2023-08-10,0.016023411514396117
2023-08-11,0.014261299436419676
2023-08-14,0.014338742246086049
2023-08-15,0.01136818212672849
2023-08-16,0.012207795353998453
2023-08-17,0.011746310495762503
2023-08-18,0.010241125375830166
2023-08-21,0.007815512086173346
2023-08-22,0.001888457010696263
2023-08-23,0.00194432730254563
2023-08-24,0.004540005150558104
2023-08-25,0.008797612561086295
2023-08-28,0.005144916419678049
2023-08-29,0.005532726229273595
2023-08-30,0.004660198738355714
2023-08-31,0.012299647028731452
2023-09-01,0.013312530545606778
2023-09-04,0.014470904390642997
2023-09-05,0.005947781457926904
2023-09-06,0.003896496318020831
2023-09-07,0.007912468202176871
2023-09-08,0.009905888505300352
2023-09-11,0.01363190918416192
2023-09-12,0.01617643302711804
2023-09-13,0.015175827040979466
2023-09-14,0.013003300509739843
2023-09-15,0.019010353019371963
2023-09-18,0.02098827995682493
2023-09-19,0.020873269282085057
2023-09-20,0.0257466368348796
2023-09-21,0.024143623226464413
2023-09-22,0.00598248094096239
2023-09-25,0.013669576351690527
2023-09-26,0.014410447429171552
2023-09-27,0.010736826367457437
2023-09-28,0.007243532429341067
2023-10-09,0.0043700750249398845
2023-10-10,0.0004747531959396478
2023-10-11,-0.0021357985775408497
2023-10-12,0.0019500681770273226
2023-10-13,-2.4572146684984086e-05
2023-10-16,-0.0016028084899974981
2023-10-17,-0.0010875434197580025
2023-10-18,-0.002638239137829984
2023-10-19,-0.010048758705158638
2023-10-20,-0.0031791996135599465
2023-10-23,0.00025934473720057305
2023-10-24,0.00911660699597848
2023-10-25,0.0075960148989269935
2023-10-26,0.01916399713431787
2023-10-27,0.019446704281249644
2023-10-30,0.014856780728408528
2023-10-31,0.002711102718690031
2023-11-01,0.005191464566361242
2023-11-02,0.0026218083366950223
2023-11-03,-0.00419268444323162
2023-11-06,-0.012083660496342033
2023-11-07,-0.020576948253139007
2023-11-08,-0.016656690777519786
2023-11-09,-0.031057057431812696
2023-11-10,-0.03508720155005593
2023-11-13,-0.038065190981771455
2023-11-14,-0.041974198538831914
2023-11-15,-0.03178742155079149
2023-11-16,-0.037523270784787455
2023-11-17,-0.04700094265837246
2023-11-20,-0.05090505953196391
2023-11-21,-0.04607302278225911
2023-11-22,-0.044632622363768366
2023-11-23,-0.043221495530855525
2023-11-24,-0.031295418578605724
2023-11-27,-0.03595369037842348
2023-11-28,-0.03616432236850276
2023-11-29,-0.02565604919314579
2023-11-30,-0.02764666324524777
2023-12-01,-0.035068676767474674
2023-12-04,-0.034425037569616096
2023-12-05,-0.032858899295954244
2023-12-06,-0.03423497494914835
2023-12-07,-0.035874513190958954
2023-12-08,-0.033479324082897464
2023-12-11,-0.028621554234462394
2023-12-12,-0.02689458654456309
2023-12-13,-0.026864590868849316
2023-12-14,-0.027466433225876833
2023-12-15,-0.023011523868874898
2023-12-18,-0.02071518081165913
2023-12-19,-0.02253041373160131
2023-12-20,-0.008747029988017609
2023-12-21,-0.012666815912728916
2023-12-22,-0.012858892940712751
2023-12-25,-0.015274469545941853
2023-12-26,-0.006229582137583484
2023-12-27,-0.009023748537321165
2023-12-28,-0.005036045859797975
2023-12-29,-0.017579336096592117
2024-01-02,-0.011942791157546902
2024-01-03,-0.013936981135773803
2024-01-04,-0.01152796930960781
2024-01-05,-0.018346330336925558
2024-01-08,-0.019117715910648828
2024-01-09,-0.015773344914389444
2024-01-10,-0.02158278103170353
2024-01-11,-0.02839019647858701
2024-01-12,-0.012400259571164546
2024-01-15,-0.018586198881377945
2024-01-16,-0.022594689513286036
2024-01-17,-0.0363015481514305
2024-01-18,-0.03055718899831349
2024-01-19,-0.03095692623789542
2024-01-22,-0.04278874246675011
2024-01-23,-0.0366196167387538
2024-01-24,-0.029374338048900814
2024-01-25,-0.02901629886465488
2024-01-26,-0.04902519725148537
2024-01-29,-0.04597409907138304
2024-01-30,-0.053421790549967305
2024-01-31,-0.05290332385623926
2024-02-01,-0.04860700785800744
2024-02-02,-0.05555748379192363
2024-02-05,-0.036751255091442336
2024-02-06,-0.027106712271592323
2024-02-07,-0.033566277134772476
2024-02-08,-0.049760820251761026
2024-02-19,-0.04662951245568543
2024-02-20,-0.03898128645115083
2024-02-21,-0.02765961442139321
2024-02-22,-0.033883201523021655
2024-02-23,-0.032130760912036066
2024-02-26,-0.037038002649463664
2024-02-27,-0.04751717658370141
2024-02-28,-0.040521053647851746
2024-02-29,-0.047749369799314184
2024-03-01,-0.052963962953983035
2024-03-04,-0.05733102655420512
2024-03-05,-0.06436341342532882
2024-03-06,-0.05591721714969477
2024-03-07,-0.061547398369357256
2024-03-08,-0.05916748743834356
2024-03-11,-0.04051668626568554
2024-03-12,-0.02191797068004455
2024-03-13,-0.02028473421785309
2024-03-14,-0.01753085318996487
2024-03-15,-0.015125675529893573
2024-03-18,-0.015671041600793224
2024-03-19,-0.01948578245930386
2024-03-20,-0.028105678981175216
2024-03-21,-0.01767571472062384
2024-03-22,-0.028497543438743594
2024-03-25,-0.041134293048890914
2024-03-26,-0.016975726057850672
2024-03-27,-0.008996057194490752
2024-03-28,-0.013422855176432403
2024-03-29,-0.013384525445985323
2024-04-01,-0.020437571623172626
2024-04-02,-0.021672402329875818
2024-04-03,-0.021649461859285003
2024-04-08,-0.01437616580045925
2024-04-09,-0.014332805475006948
2024-04-10,-0.0021756202517422517
2024-04-11,-0.010153669474812704
2024-04-12,-0.01872679693267299
2024-04-15,-0.028349365373303067
2024-04-16,-0.016818375446096184
2024-04-17,-0.02405394085478456
2024-04-18,-0.027873725585049025
2024-04-19,-0.028056575142341954
2024-04-22,-0.01407365347388458
2024-04-23,-0.010024028971221316
2024-04-24,-0.006141651797220095
2024-04-25,0.004809243849926061
2024-04-26,0.002789722794993073
2024-04-29,0.00782466081146515
2024-04-30,0.012939894566414548
2024-05-06,0.02823876504102478
2024-05-07,0.020928036129962288
2024-05-08,0.023942249235162576
2024-05-09,0.02415498822001335
2024-05-10,0.015717306800328498
2024-05-13,0.022158017020863133
2024-05-14,0.022325833107714313
2024-05-15,0.016598124628425
2024-05-16,0.015417608322956841
2024-05-17,0.0124230871767292
2024-05-20,0.007718086418582945
2024-05-21,0.007965766461721396
2024-05-22,0.011216323460811292
2024-05-23,0.011040062367973752
2024-05-24,0.010367497697713224
2024-05-27,0.01077327927342163
2024-05-28,0.004368078279747764
2024-05-29,0.011137035095811529
2024-05-30,0.023242910453045926
2024-05-31,0.026563191132132687
2024-06-03,0.027067175414829232
2024-06-04,0.03306529117219342
2024-06-05,0.03300647434596423
2024-06-06,0.026762442378752
2024-06-07,0.023595169630681326
2024-06-11,0.019259847430801696
2024-06-12,0.011143356976063695
2024-06-13,0.011752613455273328
2024-06-14,0.014314267111790055
2024-06-17,0.010576073425009061
2024-06-18,0.009426549159285452
2024-06-19,0.002122520248128673
2024-06-20,0.0009534206476523033
2024-06-21,0.0015281016432191902
2024-06-24,-0.0012143178783376452
2024-06-25,-0.004451250757523097
2024-06-26,-1.6634932600192998e-05
2024-06-27,-0.002884552332601577
2024-06-28,-0.01437131880120324
2024-07-01,-0.026723835259944567
2024-07-02,-0.03220579012139222
2024-07-03,-0.044454548905977026
2024-07-04,-0.06805275437494682
2024-07-05,-0.07943782796711227
2024-07-08,-0.07727398687782536
2024-07-09,-0.08372982321217903
2024-07-10,-0.06229491498994168
2024-07-11,-0.04853348227518198
2024-07-12,-0.03634649823493659
2024-07-15,-0.03830504195733908
2024-07-16,-0.03974180183142931
2024-07-17,-0.037290968111719294
2024-07-18,-0.03046416266295819
2024-07-19,-0.035352797482228956
2024-07-22,-0.03906360080141681
2024-07-23,-0.04211265716894497
2024-07-24,-0.05608404393862443
2024-07-25,-0.06146873495345645
2024-07-26,-0.05250634628643702
2024-07-29,-0.05630364600274321
2024-07-30,-0.06660375401022112
2024-07-31,-0.05254003081098635
2024-08-01,-0.0631752172590087
2024-08-02,-0.07753123846942594
2024-08-05,-0.05164301102997171
2024-08-06,-0.07767489196083888
2024-08-07,-0.07405786034207773
2024-08-08,-0.0731235065930799
2024-08-09,-0.07532039346798675
2024-08-12,-0.07130050536035304
2024-08-13,-0.08519535516783555
2024-08-14,-0.07645067177867759
2024-08-15,-0.07936253237395458
2024-08-16,-0.08419355821459354
2024-08-19,-0.08255311620716305
2024-08-20,-0.09348272149477571
2024-08-21,-0.08715043198620434
2024-08-22,-0.08382888100925551
2024-08-23,-0.0775571865554987
2024-08-26,-0.07956294775396669
2024-08-27,-0.07448218467463036
2024-08-28,-0.08532387061632521
2024-08-29,-0.07622585426079012
2024-08-30,-0.055160596298356734
2024-09-02,-0.05646539451723856
2024-09-03,-0.04751455998766865
2024-09-04,-0.040964099970995344
2024-09-05,-0.040423648067025086
2024-09-06,-0.04779597046440473
2024-09-09,-0.041551900606781905
2024-09-10,-0.04153171321016763
2024-09-11,-0.029286786076436866
2024-09-12,-0.025380853782239393
2024-09-13,-0.027815818341144466
2024-09-18,-0.02468410573769672
2024-09-19,-0.026210093992612926
2024-09-20,-0.03571524718561289
2024-09-23,-0.0381295706135229
2024-09-24,-0.032650468682899586
2024-09-25,-0.03630446359552478
2024-09-26,-0.016455472284486322
2024-09-27,0.0031592288083901465
2024-09-30,0.021218735046857156
2024-10-08,-0.0004725828542662541
2024-10-09,0.005677436482232578
2024-10-10,0.01064510837456514
2024-10-11,-0.0008955479140926197
2024-10-14,0.0009640620843667722
2024-10-15,0.00446756742875573
2024-10-16,-0.007150175041897527
2024-10-17,0.0067372694795105655
2024-10-18,-0.007260347883564347
2024-10-21,-0.003884584220114777
2024-10-22,-0.005540767049558675
2024-10-23,-0.008343712795953376
2024-10-24,-0.0010325202149078193
2024-10-25,-0.017731544079305987
2024-10-28,-0.012524225965090022
2024-10-29,0.002879505113103413
2024-10-30,-0.01063875652532285
2024-10-31,0.0002081017295453636
2024-11-01,-0.014377462963961835
2024-11-04,-0.020308606641960485
2024-11-05,-0.032849977630593566
2024-11-06,-0.026268635799701203
2024-11-07,-0.02700148509985398
2024-11-08,-0.030424268712009747
2024-11-11,-0.04056236993985685
2024-11-12,-0.04345013971582937
2024-11-13,-0.054815915159023496
2024-11-14,-0.04996443647413843
2024-11-15,-0.0412785216635066
2024-11-18,-0.017242007029865537
2024-11-19,-0.0263701666713202
2024-11-20,-0.015381619971387074
2024-11-21,-0.01805418869460454
2024-11-22,-0.006672594169498357
2024-11-25,-0.001784173447663101
2024-11-26,0.0003120275309250742
2024-11-27,-0.017278860493936073
2024-11-28,-0.018446671127225776
2024-11-29,-0.020709661124802388
2024-12-02,-0.022498691227272175
2024-12-03,-0.010160490211350945
2024-12-04,-0.010577418559244801
2024-12-05,-0.017339691663858063
2024-12-06,-0.015405659261208016
2024-12-09,-0.014262795000361699
2024-12-10,-0.012091076473793358
2024-12-11,-0.016807264157387748
2024-12-12,-0.021778096732865078
2024-12-13,-0.018903549576470287
2024-12-16,-0.021278031612840302
2024-12-17,-0.014341074356822657
2024-12-18,-0.019584240877782953
2024-12-19,-0.02724323926909356
2024-12-20,-0.03527379820684501
2024-12-23,-0.03528043415965819
2024-12-24,-0.03421930119633661
2024-12-25,-0.03331714634457625
2024-12-26,-0.044753609098621784
2024-12-27,-0.046989281066988485
2024-12-30,-0.03805699403701174
2024-12-31,-0.028246102606712106
2025-01-02,-0.023528327579668516
2025-01-03,-0.015599305018999539
2025-01-06,-0.006334238330806524
2025-01-07,-0.024930910405350774
2025-01-08,-0.03333649125877306
2025-01-09,-0.042208942081719866
2025-01-10,-0.04017354663661347
2025-01-13,-0.037881579474677955
2025-01-14,-0.04016430872904666
2025-01-15,-0.04409088811792899
2025-01-16,-0.04352936272121466
2025-01-17,-0.04890961891352958
2025-01-20,-0.04786296415723297
2025-01-21,-0.056819065390254
2025-01-22,-0.06244845354691717
2025-01-23,-0.06142948754049678
2025-01-24,-0.044123115158000645
2025-01-27,-0.03836547913705559
2025-02-05,-0.03744817445440908
2025-02-06,-0.03922697746057941
2025-02-07,-0.031836958326719775
2025-02-10,-0.03482378285466651
2025-02-11,-0.03285334278488093
2025-02-12,-0.043571586345066554
2025-02-13,-0.03212787698468866
2025-02-14,-0.035836498410082816
2025-02-17,-0.03676929408271125
2025-02-18,-0.04021555351266085
2025-02-19,-0.049855775747945634
2025-02-20,-0.05289496233136498
2025-02-21,-0.07457470424823848
2025-02-24,-0.07056889427816493
2025-02-25,-0.07755000651215728
2025-02-26,-0.07930704576148509
2025-02-27,-0.07265017966474799
2025-02-28,-0.04343425808690747
2025-03-03,-0.047816315932620514
2025-03-04,-0.0539983771264146
2025-03-05,-0.05906110555742965
2025-03-06,-0.056801686255309174
2025-03-07,-0.04404935451123018
2025-03-10,-0.034069894378357446
2025-03-11,-0.03206338911892165
2025-03-12,-0.03458591906364057
2025-03-13,-0.02474401825855726
2025-03-14,-0.033124369004361255
2025-03-17,-0.026624599208527673
2025-03-18,-0.039621565927568235
2025-03-19,-0.03110551085275324
2025-03-20,-0.02745425016327518
2025-03-21,-0.01579370574565214
2025-03-24,-0.013037219329413138
2025-03-25,0.010256285880813674
2025-03-26,0.014981975245772081
2025-03-27,0.012507975545612957
2025-03-28,0.013801626586933513
2025-03-31,0.02525910766235328
2025-04-01,0.02804288327309403
2025-04-02,0.017776506747557402
2025-04-03,0.02942444644011573
2025-04-07,0.053030501814909176
2025-04-08,0.07596213747270868
2025-04-09,0.06479124386626679
2025-04-10,0.047371691726765836
2025-04-11,0.03296010686706441
2025-04-14,0.028448132652148198
2025-04-15,0.032287991077917036
2025-04-16,0.046013560541586784
2025-04-17,0.048518933324347396
2025-04-18,0.05269736743125607
2025-04-21,0.04295763526519923
2025-04-22,0.0392846420004731
2025-04-23,0.022265179999771928
2025-04-24,0.038113088295157305
2025-04-25,0.02963457116085534
2025-04-28,0.035110419769871296
2025-04-29,0.04032052189559358
2025-04-30,0.03479228095187761
2025-05-06,0.01924442439359593
2025-05-07,0.03750364788042086
2025-05-08,0.04239092473999036
2025-05-09,0.051148423973254586
2025-05-12,0.05325956242783779
2025-05-13,0.05911759121605803
2025-05-14,0.05548974127309317
2025-05-15,0.0530217259502436
2025-05-16,0.052335862781818496
2025-05-19,0.052098313512712074
2025-05-20,0.05627520063834916
2025-05-21,0.06280922850853539
2025-05-22,0.061784654036464645
2025-05-23,0.07036186496925574
2025-05-26,0.06490558468646579
2025-05-27,0.0692259562003433
2025-05-28,0.06458662285984235
2025-05-29,0.06781281437535755
2025-05-30,0.07827686738411405
2025-06-03,0.06730784372635593
2025-06-04,0.054594243409385346
2025-06-05,0.04136283939364857
2025-06-06,0.038124747876342985
2025-06-09,0.034954766232997925
2025-06-10,0.04337209735795303
2025-06-11,0.04596566902855459
2025-06-12,0.03703792481692782
2025-06-13,0.0302695773762931
2025-06-16,0.017080179456568784
2025-06-17,0.03810152740176198
2025-06-18,0.0444423612282519
2025-06-19,0.043702084328302804
2025-06-20,0.05595501644857903
2025-06-23,0.03958860299961625
2025-06-24,0.04497405208239896
2025-06-25,0.04673967213226085
2025-06-26,0.04791078295234044
2025-06-27,0.02654162631658391
2025-06-30,0.033512787540956324
2025-07-01,0.04057782973880067
2025-07-02,0.05927495976206815
2025-07-03,0.05707435642586836
2025-07-04,0.044097776009254325
2025-07-07,0.04853642641250219
2025-07-08,0.04553450493209754
2025-07-09,0.047692921001277616
2025-07-10,0.036145738567660124
2025-07-11,0.0416174824083449
2025-07-14,0.029441337800135386
2025-07-15,0.029999007787555515
2025-07-16,0.029702948925803496
2025-07-17,0.028463573362114067
2025-07-18,0.03479187178425122
2025-07-21,0.02996382645456354
2025-07-22,0.03164909627731971
2025-07-23,0.02049177276485889
2025-07-24,0.02993373833784474
2025-07-25,0.02846151387584886
2025-07-28,0.008202403348309073
2025-07-29,0.012087536515312608
2025-07-30,0.012646066830180047
2025-07-31,-0.008448310238832302
2025-08-01,0.007870955034342736
2025-08-04,0.0023705779120801462
2025-08-05,-0.013715369515376996
2025-08-06,-0.016564600826357023
2025-08-07,-0.014020680312557265
2025-08-08,-0.008829954780860572
2025-08-11,-0.006855631940441448
2025-08-12,-0.003967796991288214
2025-08-13,-0.009315707452109814
2025-08-14,-0.019457060184442612
2025-08-15,-0.01170703382131287
2025-08-18,-0.001942299490732019
2025-08-19,-0.0014551836957097247
2025-08-20,0.0017024513760920262
2025-08-21,-0.004295569915771763
2025-08-22,-0.013357584918165445
2025-08-25,-0.013466978201157508
2025-08-26,0.0044549005649529225
2025-08-27,-0.0025288141204075354
2025-08-28,-0.026111309280988947
2025-08-29,-0.013075149593447858
2025-09-01,-0.02034835495719836
2025-09-02,-0.0030867935457159663
2025-09-03,0.00010550002386073079
2025-09-04,0.04208434518010869
2025-09-05,0.03040960157997019
2025-09-08,0.04999692532108591
2025-09-09,0.057355030353791595
2025-09-10,0.044498228821257355
2025-09-11,0.01953252221908082
2025-09-12,0.008252756832996436
2025-09-15,0.005429648054458803
2025-09-16,0.012452801916077966
2025-09-17,0.000564693786515076
2025-09-18,-0.006772181403658319
2025-09-19,0.012897368735394633
2025-09-22,-0.006141291540457297
2025-09-23,0.001144561917644081
2025-09-24,-0.009938726905861058
2025-09-25,-0.01857726619822716
2025-09-26,-0.0031501371471946617
2025-09-29,-0.010111976922691508
2025-09-30,-0.020652449615762465
2025-10-09,-0.005396902030589654
2025-10-10,0.028048403650175507
2025-10-13,0.030062412809094326
2025-10-14,0.06528274447446744
2025-10-15,0.0592972477485383
2025-10-16,0.08024156841445018
2025-10-17,0.08055212458617436
2025-10-20,0.08598302377715852
2025-10-21,0.0782340678825821
2025-10-22,0.09893139447461399
2025-10-23,0.09797324523439467
2025-10-24,0.05768416618311107
2025-10-27,0.06709252880790208
2025-10-28,0.06203820711555147
2025-10-29,0.06197449552141697
2025-10-30,0.05970336576888004
2025-10-31,0.09520144738722483
2025-11-03,0.1036059344579299
2025-11-04,0.09944733374089819
2025-11-05,0.09390771570961241
2025-11-06,0.06036576072746158
2025-11-07,0.08500919161781986
2025-11-10,0.08083837748779496
2025-11-11,0.07307204947386332
2025-11-12,0.07537693378687481
2025-11-13,0.08544147603142926
2025-11-14,0.09948665286937985
2025-11-17,0.0927428071095867
2025-11-18,0.10393259017082308
2025-11-19,0.10168162566269015
2025-11-20,0.10490634262073736
2025-11-21,0.13425658048361222
2025-11-24,0.1428914513647629
2025-11-25,0.1236072380293563
2025-11-26,0.10428114946854844
2025-11-27,0.08271382990634173
2025-11-28,0.0772079803198295
2025-12-01,0.0811703497839873
2025-12-02,0.08001496778674584
2025-12-03,0.06679909474274934
2025-12-04,0.07700935890543692
2025-12-05,0.06821620395347293
2025-12-08,0.04266891191848481
2025-12-09,0.029911021825868682
2025-12-10,0.03584311882600207
2025-12-11,0.02825995254862214
2025-12-12,0.03498294648508633
2025-12-15,0.038773351651239706
2025-12-16,0.04165816674688583
2025-12-17,0.013785659202434214
2025-12-18,0.02479547863669426
2025-12-19,0.03218970545170723
2025-12-22,0.011150080632926131
2025-12-23,0.0077198125881926555
2025-12-24,0.021921197977557413
2025-12-25,0.01567269264100042
2025-12-26,0.024162582492260786
2025-12-29,0.0004130154466528476
2025-12-30,0.0028655709090190523
2025-12-31,0.005139689408942072
2026-01-05,0.019122725758000097
2026-01-06,0.01563965353342815
2026-01-07,0.016830202629530576
2026-01-08,0.01883917166202623
2026-01-09,0.019288688281614667
2026-01-12,-0.011625968696373286
2026-01-13,0.017999499757033507
2026-01-14,0.021386954376308467
2026-01-15,0.021945514231127394
2026-01-16,0.011673743419334137
2026-01-19,0.0298966089370949
2026-01-20,0.035608710395943405
2026-01-21,0.01773490500083552
2026-01-22,0.028432893945400627
2026-01-23,0.004688256876649297
2026-01-26,0.014540320045349452
2026-01-27,0.016117192067299543
2026-01-28,0.03888828064063797
2026-01-29,0.06870684074876372
2026-01-30,0.07152212403252828
2026-02-02,0.11075318103533574
2026-02-03,0.09255733756895589
2026-02-04,0.12352552554307979
2026-02-05,0.12346160684327503
2026-02-06,0.13103943151352365
2026-02-09,0.1285851064162162
2026-02-10,0.12862439789406716
2026-02-11,0.1451045872261531
2026-02-12,0.12039534442100883
2026-02-13,0.13934939701522187
2026-02-24,0.1517883226339514
2026-02-25,0.14250772586612964
2026-02-26,0.11143061129316803
2026-02-27,0.12527638981871886
2026-03-02,0.08422300232122162
2026-03-03,0.08838320374536811
2026-03-04,0.09519885365300138
2026-03-05,0.11622259448947334
2026-03-06,0.13255956179134656
2026-03-09,0.1209315079418332
2026-03-10,0.10248545317711222
2026-03-11,0.12957051941600323
2026-03-12,0.12135379645509908
2026-03-13,0.12875098380540237
2026-03-16,0.12216778056673866
2026-03-17,0.1661266304235013
2026-03-18,0.17408104145635106
2026-03-19,0.19916230342499214
2026-03-20,0.2263433532410436
2026-03-23,0.26171429323331113
2026-03-24,0.24477264122007064
2026-03-25,0.2584644632434813
2026-03-26,0.29001109166384953
