date,long_short
2015-03-05,0.010668585068128624
2015-03-06,0.02429277774997244
2015-03-09,0.027128311709735745
2015-03-10,0.026844499669293104
2015-03-11,0.022809385890570674
2015-03-12,0.0017337512947847439
2015-03-13,0.025792256916223978
2015-03-16,0.0186323169965492
2015-03-17,0.023558510314260147
2015-03-18,0.014450008086424847
2015-03-19,0.019823923828786172
2015-03-20,0.0015262140914720102
2015-03-23,-0.004650559412179723
2015-03-24,-0.010697919381306733
2015-03-25,0.013446458286958472
2015-03-26,0.013735280302941598
2015-03-27,-0.007188363129849773
2015-03-30,-0.015850987009095555
2015-03-31,-0.014823379105309377
2015-04-01,-0.0384881097568356
2015-04-02,-0.0005366083953374026
2015-04-03,0.01117176553832902
2015-04-07,0.024232763403701528
2015-04-08,0.008550691367522045
2015-04-09,0.0037358829320239227
2015-04-10,0.008741967940878316
2015-04-13,-0.013672955356192805
2015-04-14,-0.019369051103699554
2015-04-15,-0.011981977921381538
2015-04-16,-0.004765562850369734
2015-04-17,-0.00860647890870948
2015-04-20,0.006933349688038104
2015-04-21,0.009972766042910662
2015-04-22,-0.002779254365967397
2015-04-23,0.0006566888032335065
2015-04-24,0.010352851621773473
2015-04-27,-0.0009542317864868165
2015-04-28,0.0013058570276783914
2015-04-29,0.003468065709754241
2015-04-30,0.001661689255826427
2015-05-04,0.00916281292858926
2015-05-05,0.015703326642924533
2015-05-06,0.011514236133973232
2015-05-07,0.016269731453092767
2015-05-08,0.0076102521605193735
2015-05-11,-0.005239468548989811
2015-05-12,0.0010320218092284231
2015-05-13,0.0024429623485307285
2015-05-14,0.023033244913308583
2015-05-15,0.03332573656169703
2015-05-18,0.026933471672923454
2015-05-19,0.03818869919663506
2015-05-20,0.029647995336972335
2015-05-21,-0.008757466171112671
2015-05-22,-0.008178207236372416
2015-05-25,0.0336660971878362
2015-05-26,0.030618661473526286
2015-05-27,0.028946470410640624
2015-05-28,0.030981454600984844
2015-05-29,0.03827414802994748
2015-06-01,0.020029287836728027
2015-06-02,-0.029628088754273873
2015-06-03,-0.018795170554707818
2015-06-04,-0.008759905644537592
2015-06-05,0.005115512707046254
2015-06-08,0.0031690017220293402
2015-06-09,-0.01145572433200586
2015-06-10,-0.010676127526186595
2015-06-11,-0.023264463162370908
2015-06-12,-0.05238363079166821
2015-06-15,-0.037875208473219346
2015-06-16,-0.03707849575592478
2015-06-17,-0.05430427158455972
2015-06-18,-0.0744922899415264
2015-06-19,-0.07655299245864165
2015-06-23,-0.032729523179426234
2015-06-24,-0.030398335308340477
2015-06-25,-0.04451176851769711
2015-06-26,-0.01410519244093579
2015-06-29,0.021394961248829517
2015-06-30,-0.058633803699519135
2015-07-01,-0.03233495225114266
2015-07-02,-0.0020219299016182093
2015-07-03,0.024510605378601794
2015-07-06,0.023351494342469182
2015-07-07,0.08508665994243034
2015-07-08,0.04447563975210922
2015-07-09,0.03178771567654182
2015-07-10,0.023053221588622407
2015-07-13,-0.001900574513582787
2015-07-14,-0.016755047082555707
2015-07-15,0.023642871235481297
2015-07-16,0.020820227142393843
2015-07-17,0.0012556114230135472
2015-07-20,-0.026889815840773143
2015-07-21,-0.008903576655033586
2015-07-22,-0.014227388014006248
2015-07-23,-0.022057574718111872
2015-07-24,-0.021983404636454276
2015-07-27,-0.0074737820384680465
2015-07-28,-0.011895329968489042
2015-07-29,-0.010439661776619348
2015-07-30,-0.005617551554415156
2015-07-31,0.004792644655179389
2015-08-03,0.03350987950613549
2015-08-04,-0.0038267876563984546
2015-08-05,-0.011475334797422038
2015-08-06,-0.0002488483360967436
2015-08-07,0.0045817710622994695
2015-08-10,-0.018024863033915758
2015-08-11,-0.012714898723539494
2015-08-12,0.0043319373012793115
2015-08-13,-0.010267126285795854
2015-08-14,-0.025308559038120362
2015-08-17,-0.024351442526882844
2015-08-18,-0.051713675144221816
2015-08-19,-0.05332668302489854
2015-08-20,-0.0476047381614783
2015-08-21,-0.025640972585448583
2015-08-24,-0.004866004395968656
2015-08-25,0.003448660874785278
2015-08-26,0.006442931356472378
2015-08-27,0.0022614648406901095
2015-08-28,6.585263875841935e-05
2015-08-31,-0.0012704977228221795
2015-09-01,0.01745142553211887
2015-09-02,0.02636721038684969
2015-09-07,-0.008661861330414567
2015-09-08,-0.011370218809933143
2015-09-09,-0.011375324449916423
2015-09-10,-0.025639134204745784
2015-09-11,-0.02434871789225196
2015-09-14,0.009725230198976092
2015-09-15,0.020509929274473745
2015-09-16,0.00608831894805381
2015-09-17,0.02413508900404176
2015-09-18,0.015815931708609947
2015-09-21,0.010118737387196798
2015-09-22,0.012244061498864575
2015-09-23,0.013492061269590162
2015-09-24,-0.007350727288557769
2015-09-25,0.0015224330737366627
2015-09-28,0.00381592871622715
2015-09-29,0.008289925737814147
2015-09-30,0.0011171518302879116
2015-10-08,0.009841917053249126
2015-10-09,0.0068118223640403625
2015-10-12,0.0051566997703723725
2015-10-13,0.006559396362597638
2015-10-14,-0.0016638152079280922
2015-10-15,0.007373479654759308
2015-10-16,0.00687168774275934
2015-10-19,0.0030557241915389888
2015-10-20,0.0020427522874351418
2015-10-21,-0.0003095448108322296
2015-10-22,-0.005121721830270537
2015-10-23,-0.0036491396528735122
2015-10-26,-0.005556188112719348
2015-10-27,-0.014492514916677234
2015-10-28,0.016761776331489675
2015-10-29,0.01566269209897115
2015-10-30,0.029672021809772183
2015-11-02,0.03373714452815704
2015-11-03,0.043981342242386756
2015-11-04,0.03233860532001154
2015-11-05,0.03536430376712406
2015-11-06,0.017217751235660828
2015-11-09,0.020253082323383288
2015-11-10,0.007362594209770772
2015-11-11,-0.007829884615855279
2015-11-12,0.0023724251905370315
2015-11-13,0.003694164128322394
2015-11-16,-0.015627730615355575
2015-11-17,0.004821278618278474
2015-11-18,0.014618707053697095
2015-11-19,0.0016641669339979188
2015-11-20,-0.013768283722014166
2015-11-23,-0.011718123818599487
2015-11-24,-0.024132237781636444
2015-11-25,-0.032561497969189904
2015-11-26,-0.008885731797909746
2015-11-27,0.005780810927062983
2015-11-30,0.007513693786992797
2015-12-01,0.011140109359653618
2015-12-02,0.010075521069700263
2015-12-03,0.0026060169866686557
2015-12-04,-0.004043746039125112
2015-12-07,0.02296588721680807
2015-12-08,0.018869113871313722
2015-12-09,0.01522107324844394
2015-12-10,0.010399066068088655
2015-12-11,0.02353792013061897
2015-12-14,0.021746201066993858
2015-12-15,0.02435354732946586
2015-12-16,0.018070935028090044
2015-12-17,0.013901429182553125
2015-12-18,0.01391856083311438
2015-12-21,-0.008846707749393829
2015-12-22,-0.014107994838839722
2015-12-23,-0.013483489526490238
2015-12-24,-0.010391757513439844
2015-12-25,-0.03861736722421401
2015-12-28,0.0011727108320301952
2015-12-29,-0.0029049013464754157
2015-12-30,-0.0030363107008150175
2015-12-31,-0.015114013260286482
2016-01-04,-0.000525285350292018
2016-01-05,-0.004043075758063681
2016-01-06,-0.026005147227631087
2016-01-07,-0.0032878605850390798
2016-01-08,-0.0067921245043638945
2016-01-11,0.003975203127042186
2016-01-12,-0.006276563874200048
2016-01-13,0.015910666976386996
2016-01-14,0.022195360690343124
2016-01-15,0.019683737042814314
2016-01-18,0.018067059496427607
2016-01-19,-0.013283992883739118
2016-01-20,-0.024018768774693867
2016-01-21,-0.05191413133379049
2016-01-22,-0.05136275761964518
2016-01-25,-0.04442435993912445
2016-01-26,-0.026167350355742098
2016-01-27,-0.0007675606638935769
2016-01-28,0.005497448318019741
2016-01-29,0.010676711799114003
2016-02-01,0.016607483854465956
2016-02-02,0.01858691108964572
2016-02-03,0.0073743580062853795
2016-02-04,0.008478961298281528
2016-02-05,0.0029856915623040423
2016-02-15,0.00534299275051487
2016-02-16,-0.003992503866816361
2016-02-17,-0.008795148130854882
2016-02-18,-0.005164917386615817
2016-02-19,-0.01575384366702617
2016-02-22,-0.019525285683993338
2016-02-23,-0.017258065826536734
2016-02-24,-0.01896066733098796
2016-02-25,-0.0126065233069672
2016-02-26,-0.011021334221867064
2016-02-29,-0.002623516268937358
2016-03-01,-0.008744346477420832
2016-03-02,0.005551636288585137
2016-03-03,-0.00971293829295032
2016-03-04,-0.00018197503362361173
2016-03-07,-0.0032207274671823627
2016-03-08,-0.01177608410847273
2016-03-09,-0.008080580474806483
2016-03-10,0.002504197224270272
2016-03-11,0.004080044744068555
2016-03-14,0.025271376609831524
2016-03-15,0.021373881938396816
2016-03-16,0.0232127767111807
2016-03-17,0.0257288044687309
2016-03-18,0.013276562451413943
2016-03-21,-0.010042733568080628
2016-03-22,-0.008743505446111424
2016-03-23,-0.003431916818503068
2016-03-24,-0.009116260221391104
2016-03-25,-0.005346747506801328
2016-03-28,0.010844747537861637
2016-03-29,0.015278398905899063
2016-03-30,-0.00505895189848829
2016-03-31,0.001610942988181107
2016-04-01,0.00499429430172469
2016-04-05,-0.00888637443096103
2016-04-06,-0.01252403792791661
2016-04-07,-0.0076541379205032
2016-04-08,-0.014145023100961097
2016-04-11,-0.008912035909457893
2016-04-12,-0.01076343033310303
2016-04-13,-0.017295716424769944
2016-04-14,-0.023086538305420914
2016-04-15,-0.009595275001333186
2016-04-18,-0.015465853975667819
2016-04-19,-0.0023501426020057954
2016-04-20,-6.812862368335733e-06
2016-04-21,0.005061239231012687
2016-04-22,0.00500384701050669
2016-04-25,0.007275847635345054
2016-04-26,0.003981040033345075
2016-04-27,0.017311341354599476
2016-04-28,0.01806424667636818
2016-04-29,0.011866195873132243
2016-05-03,0.0012631376784648304
2016-05-04,-0.005886822215339409
2016-05-05,-0.012308386687035586
2016-05-06,-0.004005518152828163
2016-05-09,0.002179612662238001
2016-05-10,-0.0014888705555521776
2016-05-11,0.013779922714071153
2016-05-12,0.002851799015364132
2016-05-13,-0.004982538854349921
2016-05-16,-0.0015589350084737356
2016-05-17,-0.004195478598867043
2016-05-18,-0.026937094689604223
2016-05-19,-0.024816988422149824
2016-05-20,-0.01241882583204167
2016-05-23,-0.012250306075997832
2016-05-24,-0.015589623988269897
2016-05-25,0.010439587911695181
2016-05-26,0.009677301946329184
2016-05-27,0.005812115902023674
2016-05-30,0.00825895584366343
2016-05-31,0.003555716136126052
2016-06-01,-0.0050802399990741735
2016-06-02,0.007715288734517064
2016-06-03,0.005065739899270189
2016-06-06,-0.0003645441443369205
2016-06-07,0.01623476185120109
2016-06-08,0.010266057838087043
2016-06-13,-0.00857978215733165
2016-06-14,0.004574207260449326
2016-06-15,-0.005933411684025275
2016-06-16,-0.013687203748715718
2016-06-17,0.0033589050621024687
2016-06-20,0.01786168327164962
2016-06-21,0.012228849700776968
2016-06-22,0.007209489865649834
2016-06-23,0.007242998650423468
2016-06-24,-0.00531721943980943
2016-06-27,-0.01072409142763852
2016-06-28,-0.00951284305309667
2016-06-29,-0.0041861285727360364
2016-06-30,-0.0006312484100614857
2016-07-01,0.00821885280092344
2016-07-04,-0.00038293498528928563
2016-07-05,-0.008236528329509222
2016-07-06,-0.010386084727939695
2016-07-07,-0.017660991740668243
2016-07-08,-0.020618444910701333
2016-07-11,-0.01938509342574233
2016-07-12,-0.008135943278897237
2016-07-13,-0.001445880321834076
2016-07-14,-0.006633169470671274
2016-07-15,-0.0012368629697184106
2016-07-18,0.00320969884392148
2016-07-19,0.0016500718468851388
2016-07-20,-0.0019075093489800002
2016-07-21,-0.001015166820402062
2016-07-22,-0.0029476948164188334
2016-07-25,-0.009696327076109582
2016-07-26,-0.0010762232169073006
2016-07-27,0.003963176745515929
2016-07-28,0.0006056844826168601
2016-07-29,-0.002392748391907543
2016-08-01,-0.0006469581283852091
2016-08-02,-0.0035740298213924326
2016-08-03,-0.0012883195703875215
2016-08-04,-0.019045412291389084
2016-08-05,-0.01396096684875918
2016-08-08,-0.01123878018478243
2016-08-09,-0.008190270888234367
2016-08-10,-0.012150877524797564
2016-08-11,-0.0009061908776123763
2016-08-12,0.0055922588998037134
2016-08-15,-0.0008049980600594742
2016-08-16,-0.0007889668481069513
2016-08-17,0.001882756317341406
2016-08-18,-0.006071279588702945
2016-08-19,-0.0035704454842745547
2016-08-22,-0.003337191396214234
2016-08-23,-0.003772847676485358
2016-08-24,0.009400331736886473
2016-08-25,0.010990339783126656
2016-08-26,0.002197281863242285
2016-08-29,0.0007134551281592991
2016-08-30,-0.007009095403854132
2016-08-31,-0.00965622588237869
2016-09-01,-0.016241275396660985
2016-09-02,-0.012343687981492497
2016-09-05,-0.011200616616743745
2016-09-06,-0.009109569238830963
2016-09-07,0.002001216257592038
2016-09-08,-0.0033336518395280096
2016-09-09,0.0039654867757185595
2016-09-12,-0.0044427590337636665
2016-09-13,0.005060310914042505
2016-09-14,-0.00938862098615223
2016-09-19,-0.010618125319372522
2016-09-20,-0.009084623196422307
2016-09-21,-0.0002590304783920711
2016-09-22,0.00043178130935359743
2016-09-23,0.004697111913679456
2016-09-26,-0.009994230628688983
2016-09-27,-0.006612791201126032
2016-09-28,-0.008748200762515814
2016-09-29,-0.00520495170145467
2016-09-30,-0.007193282161562738
2016-10-10,-0.0014271432401805552
2016-10-11,0.008532955022866802
2016-10-12,-0.001269431070034831
2016-10-13,-0.002748422735236355
2016-10-14,-0.005203590209951638
2016-10-17,-0.005459231866247621
2016-10-18,-0.012723813277490892
2016-10-19,-0.0039952719409997945
2016-10-20,-0.005771586226129229
2016-10-21,-0.006704008069590965
2016-10-24,0.00043365182529443453
2016-10-25,0.0024400313404138625
2016-10-26,0.003945761222044174
2016-10-27,0.006814212055232906
2016-10-28,0.0016250661466338848
2016-10-31,0.0011164988793454763
2016-11-01,-0.004449972085696398
2016-11-02,0.0056508207661564586
2016-11-03,-0.00040945402787198777
2016-11-04,0.005813679850655857
2016-11-07,0.0006336293540447104
2016-11-08,-0.0002399244844166204
2016-11-09,-0.01320382087858547
2016-11-10,-0.009058834866759197
2016-11-11,-0.012008124128503005
2016-11-14,-0.006713481655956432
2016-11-15,-0.004825491864892978
2016-11-16,0.0033700871086311873
2016-11-17,0.0003508466281051288
2016-11-18,0.00484342321379728
2016-11-21,0.001028631536463119
2016-11-22,-0.0015016280725843236
2016-11-23,-0.0030511329598944164
2016-11-24,-0.010380760568841137
2016-11-25,-0.007853780790482028
2016-11-28,0.018582681814098178
2016-11-29,0.015321055000110918
2016-11-30,0.00689297107798951
2016-12-01,0.008228686080963776
2016-12-02,0.0004584969289545089
2016-12-05,-0.005322172555471211
2016-12-06,0.008378885557701735
2016-12-07,0.016544434539021317
2016-12-08,0.0021377872152162775
2016-12-09,0.00604142133552274
2016-12-12,-0.010361798564637072
2016-12-13,-0.002384408375923776
2016-12-14,-0.0040342121962544785
2016-12-15,0.00819610152444288
2016-12-16,-0.0015753847856538692
2016-12-19,0.0010026218786447797
2016-12-20,-0.011053782064588418
2016-12-21,-0.014858918100060944
2016-12-22,-0.009578517240027045
2016-12-23,-0.017540955317561197
2016-12-26,-0.027504880817593363
2016-12-27,-0.021394889104449623
2016-12-28,-0.019648035240289408
2016-12-29,-0.023161598233412947
2016-12-30,-0.010670919166301873
2017-01-03,0.0009348252667214858
2017-01-04,-0.003631983742273775
2017-01-05,0.0018731279371129658
2017-01-06,0.008009660502516714
2017-01-09,0.0027139027687898
2017-01-10,0.013230846380415565
2017-01-11,0.009322309529366498
2017-01-12,0.009759745487282676
2017-01-13,-0.0005401322994108055
2017-01-16,0.00020356212473268513
2017-01-17,0.0013670775722166824
2017-01-18,0.010826281183658207
2017-01-19,0.00701827656561254
2017-01-20,0.000980372742548526
2017-01-23,0.012042017400418208
2017-01-24,0.002272830180289149
2017-01-25,-0.003188371951113678
2017-01-26,-0.004841475474040777
2017-02-03,-0.009614493603524269
2017-02-06,-0.01524134904760869
2017-02-07,-0.008687781137009227
2017-02-08,-0.008490123138583026
2017-02-09,-0.006575179708497719
2017-02-10,0.0010765243554211323
2017-02-13,0.00016091015628310994
2017-02-14,0.0030684539876796677
2017-02-15,0.003926305564540905
2017-02-16,0.006588574057897279
2017-02-17,0.0027080843787125643
2017-02-20,0.0006821024493482344
2017-02-21,-0.0020142490380946733
2017-02-22,-0.0072647503823513124
2017-02-23,-0.014028808872403717
2017-02-24,-0.016444064644013455
2017-02-27,-0.025838680531057423
2017-02-28,-0.017526742330636735
2017-03-01,-0.00991442968933028
2017-03-02,-0.004662706714758543
2017-03-03,-0.0013366746011714186
2017-03-06,-0.00297013028223971
2017-03-07,0.0015050384406079251
2017-03-08,0.003286614708151673
2017-03-09,0.00028996824793538906
2017-03-10,0.003403342875247989
2017-03-13,0.004872489946876464
2017-03-14,0.002217233113370798
2017-03-15,0.0016473957757189876
2017-03-16,0.0046873827772875975
2017-03-17,-0.0026801453556757524
2017-03-20,-0.0034712430080955873
2017-03-21,0.001397854959593639
2017-03-22,0.002337218367834487
2017-03-23,0.006890218304925765
2017-03-24,0.014891646718039997
2017-03-27,0.0027947058308763024
2017-03-28,-0.0013020103236340468
2017-03-29,-0.0054573545978853135
2017-03-30,-0.010923434884623483
2017-03-31,-0.013931558216980862
2017-04-05,0.002928546589777953
2017-04-06,0.003806598422591969
2017-04-07,0.0052421613820681865
2017-04-10,0.003374507750733651
2017-04-11,0.012397220504315085
2017-04-12,0.01598509389399875
2017-04-13,0.020295271395555037
2017-04-14,0.017880951598772826
2017-04-17,0.0126866920882829
2017-04-18,0.006239978849785851
2017-04-19,-0.00982059367862495
2017-04-20,-0.007891130504442189
2017-04-21,-0.010713149866400014
2017-04-24,-0.007246487898922555
2017-04-25,-0.0006952695876028384
2017-04-26,-0.007327043762571898
2017-04-27,0.007251355744748519
2017-04-28,0.0008520647034447621
2017-05-02,-0.000706086084164833
2017-05-03,0.011692160411669936
2017-05-04,0.02571910581843066
2017-05-05,0.01007662305661799
2017-05-08,0.01030950892366868
2017-05-09,0.008880279126318473
2017-05-10,-0.006914760088888566
2017-05-11,-0.008782892790740229
2017-05-12,-0.0003600273263836785
2017-05-15,-0.008770304208844374
2017-05-16,0.004588157622670563
2017-05-17,-0.0043709192531601136
2017-05-18,-0.006227868232983222
2017-05-19,-0.006148250663964768
2017-05-22,-0.008674540525492084
2017-05-23,-0.004844353879975111
2017-05-24,-0.004018007223108895
2017-05-25,-0.0023945178868654458
2017-05-26,0.0029086991931984068
2017-05-31,0.001273947686706781
2017-06-01,-0.005450951898557349
2017-06-02,0.005412099383475429
2017-06-05,0.009377666199639275
2017-06-06,0.00682029067611431
2017-06-07,0.0073308022827354895
2017-06-08,0.007541612526422433
2017-06-09,0.0005335606077323167
2017-06-12,-0.0025790564225294885
2017-06-13,-0.005839656427706808
2017-06-14,-0.0038917466606037676
2017-06-15,-0.0018888073013400564
2017-06-16,0.007725371327983491
2017-06-19,0.009649988855888166
2017-06-20,0.014730559601375396
2017-06-21,0.011703645116038556
2017-06-22,0.005957880281235062
2017-06-23,0.00417159915129579
2017-06-26,-0.005275901793728425
2017-06-27,-0.0041316561515094274
2017-06-28,-0.007204798830489651
2017-06-29,-0.0023363146890913455
2017-06-30,-0.007890386166738036
2017-07-03,-0.0033382461904184315
2017-07-04,-0.0026651090791784474
2017-07-05,0.0013238382658063244
2017-07-06,0.006816967770820377
2017-07-07,0.015414003952654881
2017-07-10,0.035432894360740166
2017-07-11,0.015158479964251273
2017-07-12,0.012186831854262939
2017-07-13,0.01649926141301029
2017-07-14,0.006113829210471165
2017-07-17,-0.006457908477312119
2017-07-18,-0.0006155319701017844
2017-07-19,0.0002877038626553733
2017-07-20,-0.008338536448703157
2017-07-21,-0.0025262377481496093
2017-07-24,-0.01167560044279159
2017-07-25,-0.00739825797525236
2017-07-26,-0.0015998230167023637
2017-07-27,0.0036727299350265323
2017-07-28,0.0003043491821447708
2017-07-31,0.002257071624442935
2017-08-01,0.008788179785784236
2017-08-02,0.002324290851423448
2017-08-03,0.006894270079573545
2017-08-04,0.007722090422181211
2017-08-07,0.009769123626568482
2017-08-08,0.002681184474553751
2017-08-09,-0.003065394754801218
2017-08-10,-0.009456726031911417
2017-08-11,-0.004436819499995821
2017-08-14,-0.002251956316216025
2017-08-15,0.004271197317824587
2017-08-16,0.006454512863837922
2017-08-17,0.005462095033836678
2017-08-18,0.007045961178546427
2017-08-21,0.0064397377241329126
2017-08-22,-0.00038739230296262403
2017-08-23,-0.0032399890023658926
2017-08-24,-0.0023463486356518973
2017-08-25,-0.0049086778567132925
2017-08-28,-0.0044744617052132705
2017-08-29,-0.0042908728457452345
2017-08-30,-0.00877735523552264
2017-08-31,-0.0018538088653299008
2017-09-01,-0.005317730942698845
2017-09-04,-0.006919058810720891
2017-09-05,-0.006652095363800762
2017-09-06,0.0009531216214512164
2017-09-07,-0.00463161897154899
2017-09-08,0.0031365723590222935
2017-09-11,0.0029111280690054236
2017-09-12,0.008487082948610268
2017-09-13,-0.0022782085331953506
2017-09-14,0.004616428157858386
2017-09-15,-0.002067482968928269
2017-09-18,0.0011657401682240373
2017-09-19,0.0026133711261537226
2017-09-20,0.0001666601495984056
2017-09-21,-0.00023172572539629762
2017-09-22,-0.005048677808801079
2017-09-25,-0.008948286208310726
2017-09-26,-0.007286484198202131
2017-09-27,-0.0032581908009422216
2017-09-28,-0.018270712736217932
2017-09-29,-0.016921791775610158
2017-10-09,-0.0023306570749763297
2017-10-10,-0.004508998645184845
2017-10-11,0.0010241288248442702
2017-10-12,0.012609458077595904
2017-10-13,0.004135062721394318
2017-10-16,-0.0005400213985626847
2017-10-17,0.0038288577804431734
2017-10-18,-0.004846145972478694
2017-10-19,-0.01232391286783042
2017-10-20,0.0006963414702739583
2017-10-23,-0.0016370196934774976
2017-10-24,0.0021945334320815184
2017-10-25,0.0035300159444551058
2017-10-26,0.012686660802039056
2017-10-27,0.007286719347419065
2017-10-30,0.007055441468212156
2017-10-31,-0.000387226506659925
2017-11-01,-0.008379657655643215
2017-11-02,-0.002931046208600527
2017-11-03,-0.00025887253287279477
2017-11-06,0.0015309994275599474
2017-11-07,0.006665490684205761
2017-11-08,0.01697148672766677
2017-11-09,0.009732060081461281
2017-11-10,0.007269264937912177
2017-11-13,0.012197226650173445
2017-11-14,0.010233234106413115
2017-11-15,0.0006950500092748248
2017-11-16,0.005741111737870901
2017-11-17,-0.003392934814038291
2017-11-20,-0.011499478376273317
2017-11-21,-0.01741164076322333
2017-11-22,-0.01871810406640119
2017-11-23,-0.016907157781662577
2017-11-24,-0.015570290410639757
2017-11-27,-0.010481526434069112
2017-11-28,-0.00030122175097479446
2017-11-29,0.00968861044519631
2017-11-30,0.003004056031831499
2017-12-01,0.005312951059484022
2017-12-04,0.00525048148254278
2017-12-05,-0.0005771016127803421
2017-12-06,0.0043051117358975585
2017-12-07,0.008062204423840083
2017-12-08,0.00261446138295114
2017-12-11,-0.002505277229281835
2017-12-12,-0.0009864020055686113
2017-12-13,0.004288381732914954
2017-12-14,0.005706517717196009
2017-12-15,0.00828445729843653
2017-12-18,0.019766724554163544
2017-12-19,0.013990772443963295
2017-12-20,0.0019863196821868086
2017-12-21,0.004504575912044864
2017-12-22,0.0005862053594514081
2017-12-25,-0.010090569155671296
2017-12-26,-0.01232777209756287
2017-12-27,-0.01323043096316691
2017-12-28,-0.017946349165173583
2017-12-29,-0.01076289689498866
2018-01-02,-0.00798109366087572
2018-01-03,0.0030792394364220176
2018-01-04,0.011839520011210206
2018-01-05,0.012872597897845828
2018-01-08,0.024101395075329938
2018-01-09,0.0259040807548414
2018-01-10,0.01462284349875274
2018-01-11,0.013554881900996492
2018-01-12,0.010770703694092873
2018-01-15,-0.0025161265455349024
2018-01-16,-0.0052625198027499275
2018-01-17,-0.004185747149886468
2018-01-18,-0.009586322085869644
2018-01-19,-0.003235366075399631
2018-01-22,-0.02027802488274303
2018-01-23,-0.01404926031865115
2018-01-24,0.006826830991430222
2018-01-25,0.024364674999519616
2018-01-26,0.02002954801849782
2018-01-29,0.0270501817786397
2018-01-30,0.049117959082083676
2018-01-31,0.02006500583436835
2018-02-01,5.634888205340027e-05
2018-02-02,0.010441512763982336
2018-02-05,-0.0070338338470466305
2018-02-06,-0.019780170952413724
2018-02-07,-0.0043156769018519656
2018-02-08,-0.00031879744495246203
2018-02-09,-0.008602063907858538
2018-02-12,-0.0020089260997502925
2018-02-13,-0.015153747596202187
2018-02-14,-0.028321947896480928
2018-02-22,-0.027850610242001382
2018-02-23,-0.025052763552342153
2018-02-26,-0.024373300153315916
2018-02-27,-0.018173798340337048
2018-02-28,-0.010695701623337734
2018-03-01,-0.0037229983706743965
2018-03-02,-0.013048261150227556
2018-03-05,-0.00959042988875776
2018-03-06,-0.008351688379728942
2018-03-07,-0.00837533676027934
2018-03-08,-0.008554505654650761
2018-03-09,0.0020040649557811156
2018-03-12,0.007594540836957811
2018-03-13,0.010198703110954534
2018-03-14,0.007797574089710874
2018-03-15,0.001459857028863686
2018-03-16,0.008716510642026002
2018-03-19,0.005079789015656141
2018-03-20,-0.0017936003078748014
2018-03-21,0.008045063711804724
2018-03-22,0.011559850133257707
2018-03-23,-0.0025207850695670685
2018-03-26,-0.007640221324550904
2018-03-27,0.0010380025845519523
2018-03-28,-0.006627119182924275
2018-03-29,-0.013630331438958133
2018-03-30,-0.008248758310608503
2018-04-02,-0.0017649352848453396
2018-04-03,-0.00397163294603142
2018-04-04,-0.0022015398763957084
2018-04-09,0.005411191218287717
2018-04-10,0.0011623717171019184
2018-04-11,-0.0042391117140655014
2018-04-12,-0.006318574730576466
2018-04-13,0.0009715294280051925
2018-04-16,0.0004033759170088448
2018-04-17,-0.0005942709989084898
2018-04-18,0.005184680202428575
2018-04-19,0.003445112706715013
2018-04-20,-0.009626873699575976
2018-04-23,-0.013302751066810857
2018-04-24,-0.006324166359238276
2018-04-25,-0.0071718712565988
2018-04-26,-0.004881232523383905
2018-04-27,0.003362200323846584
2018-05-02,0.0029135560205749353
2018-05-03,-0.0036945796996244
2018-05-04,-0.0024959821227547793
2018-05-07,0.004947476143496548
2018-05-08,0.0008590439478066625
2018-05-09,0.004997511536199213
2018-05-10,0.0034799180401287816
2018-05-11,-0.0005741717021346192
2018-05-14,-0.015565393675369115
2018-05-15,-0.009794888269538194
2018-05-16,-0.010263827770735876
2018-05-17,-0.004241065813044346
2018-05-18,0.00043975679728548017
2018-05-21,0.006706702246402563
2018-05-22,0.008866030389151357
2018-05-23,0.014422441559056018
2018-05-24,0.013031314537936711
2018-05-25,0.009750359206014643
2018-05-28,0.013180929310646825
2018-05-29,0.015925639253457295
2018-05-30,0.009092351643052849
2018-05-31,0.0005914244893243581
2018-06-01,0.009480999475812126
2018-06-04,-0.0011943577696255092
2018-06-05,-0.004702480106632188
2018-06-06,-0.005396509726986725
2018-06-07,-0.0003804571829421604
2018-06-08,-0.0053328963250185765
2018-06-11,0.02266299613611871
2018-06-12,0.018898439827918168
2018-06-13,0.029829031681729824
2018-06-14,0.01876522799146673
2018-06-15,0.017424455471778448
2018-06-19,0.003918173748271421
2018-06-20,-0.002030092629017738
2018-06-21,0.005211626025679823
2018-06-22,-0.00045807743092394007
2018-06-25,0.010080474507234259
2018-06-26,0.0028945120642984365
2018-06-27,-0.0009206500017774587
2018-06-28,8.80869351378745e-05
2018-06-29,-0.0023529140192815705
2018-07-02,-0.010254495876885046
2018-07-03,-0.012940127991297654
2018-07-04,-0.002335597999539204
2018-07-05,-0.0012074034065293858
2018-07-06,0.0030137808143703704
2018-07-09,0.004059692683226075
2018-07-10,0.004710216513314547
2018-07-11,-6.241791227862628e-05
2018-07-12,0.0023978911609442745
2018-07-13,-0.00012191616745785673
2018-07-16,-0.009553500976894074
2018-07-17,-0.011334762356279771
2018-07-18,-0.01250515343505464
2018-07-19,-0.016394934659841816
2018-07-20,-0.01653984859031713
2018-07-23,-0.015392005007894696
2018-07-24,-0.005935842066671755
2018-07-25,-0.005715652789320087
2018-07-26,0.0019421928726639087
2018-07-27,0.0014139382842992682
2018-07-30,0.00810138435722381
2018-07-31,-0.003467355182214169
2018-08-01,-0.0002321422153992829
2018-08-02,0.0010082977897833962
2018-08-03,-0.002200122809279788
2018-08-06,-0.007375808996484601
2018-08-07,0.003750680989129548
2018-08-08,0.0030069462514600775
2018-08-09,0.004283042955836702
2018-08-10,-0.003718750739547895
2018-08-13,-0.0012514285007246204
2018-08-14,0.004104758965900112
2018-08-15,8.0423436517197e-06
2018-08-16,-0.004751048611822932
2018-08-17,0.004263184207370593
2018-08-20,-0.0016744060462635102
2018-08-21,0.0005621696690017285
2018-08-22,-0.0010043348424172826
2018-08-23,0.0024500140898712436
2018-08-24,0.0030692427709473735
2018-08-27,0.004895786917458924
2018-08-28,0.002286435941134677
2018-08-29,0.0036558441954313327
2018-08-30,0.0060765713619836004
2018-08-31,0.003829999320874776
2018-09-03,0.004364180402701798
2018-09-04,0.005333118823353682
2018-09-05,0.001966322510945983
2018-09-06,-0.00751000926540895
2018-09-07,-0.004128795446181589
2018-09-10,-0.0017955570172094152
2018-09-11,-0.009502755263441558
2018-09-12,-0.014786704175054835
2018-09-13,-0.00958005648191091
2018-09-14,-0.005319665297434658
2018-09-17,-0.007619719946888023
2018-09-18,0.0015213549703692007
2018-09-19,0.004166420493688079
2018-09-20,0.007431371750936111
2018-09-21,0.006986788760691795
2018-09-25,0.004597625343213299
2018-09-26,-0.001556727368398108
2018-09-27,0.016038026205578863
2018-09-28,0.01396500229296277
2018-10-08,0.01131781200296747
2018-10-09,0.01183134417772512
2018-10-10,0.019639353649971887
2018-10-11,0.011524563131227308
2018-10-12,0.00857624426783133
2018-10-15,-0.002016850278231959
2018-10-16,-0.0033245684950535676
2018-10-17,-0.011213639054733437
2018-10-18,-0.028123180021726677
2018-10-19,-0.018052103573340493
2018-10-22,-0.013545549090052032
2018-10-23,-0.016447163415043785
2018-10-24,-0.010608989999114818
2018-10-25,-0.013494139955479448
2018-10-26,-0.01583839565958004
2018-10-29,-0.010378781504430709
2018-10-30,-0.010830216772836632
2018-10-31,-0.010614216427036607
2018-11-01,-0.0031942784066805313
2018-11-02,-0.006373033745688476
2018-11-05,-0.003782759775125266
2018-11-06,-0.004744302807427119
2018-11-07,-0.00578544168418939
2018-11-08,-0.015037995907605628
2018-11-09,-0.010188193334079353
2018-11-12,-0.007110454134242921
2018-11-13,0.00214564192327015
2018-11-14,0.005517248735466249
2018-11-15,0.004523096653803612
2018-11-16,0.011068802044504729
2018-11-19,0.008350628571530662
2018-11-20,0.0020051002957499515
2018-11-21,0.002075570179365249
2018-11-22,0.003223475503750923
2018-11-23,-0.0041438286835027965
2018-11-26,-0.006546149291287374
2018-11-27,-0.002823654879903246
2018-11-28,-0.006379521872514423
2018-11-29,0.001070100678743564
2018-11-30,0.003346508876365703
2018-12-03,0.00456007292330134
2018-12-04,0.0011335760977249296
2018-12-05,0.0026166905233142405
2018-12-06,-0.0008043101594372047
2018-12-07,0.0013419961935580071
2018-12-10,-0.004975425749353335
2018-12-11,0.0014542198472489547
2018-12-12,0.004604203708290587
2018-12-13,0.0030145271095948743
2018-12-14,0.007255744789837499
2018-12-17,0.010879336354051588
2018-12-18,0.0037751774929093984
2018-12-19,0.0018322924918085376
2018-12-20,0.004526788757528932
2018-12-21,0.0026344537097929936
2018-12-24,0.00955076077449727
2018-12-25,0.014207563527685891
2018-12-26,0.006987852523270444
2018-12-27,-0.009736485606773758
2018-12-28,-0.00992381055049561
2019-01-02,-0.009024546302242364
2019-01-03,-0.00935440040624791
2019-01-04,-0.004734385561300828
2019-01-07,0.004878826040068018
2019-01-08,-0.0002973016762803562
2019-01-09,-0.0004762676053714863
2019-01-10,0.0003290825974595103
2019-01-11,0.000994957129667724
2019-01-14,-0.005350864958722168
2019-01-15,0.005673061843125378
2019-01-16,-2.2187295479536356e-06
2019-01-17,-0.0019789224262353276
2019-01-18,0.0027618725428933655
2019-01-21,0.006333911021634808
2019-01-22,0.004054828440127981
2019-01-23,0.012543586854572276
2019-01-24,0.021152499334310838
2019-01-25,0.009933864167329286
2019-01-28,0.004928718144189961
2019-01-29,-0.0009164241932981543
2019-01-30,-0.015817947200715422
2019-01-31,-0.00970068084428298
2019-02-01,-0.0011188927595891206
2019-02-11,-0.007373580574549836
2019-02-12,-0.009338859611956858
2019-02-13,-0.006714419234081876
2019-02-14,-0.007371236158405743
2019-02-15,-0.01057197106264312
2019-02-18,-0.014075930720517812
2019-02-19,-0.014387733137083268
2019-02-20,-0.010718501305597018
2019-02-21,-0.019112191116109907
2019-02-22,-0.012443551190601872
2019-02-25,-0.008804381274553318
2019-02-26,0.004665136422840187
2019-02-27,-0.00040512206981327403
2019-02-28,0.0027379974129114887
2019-03-01,0.0019675409280782916
2019-03-04,-0.0015555405914270543
2019-03-05,-0.00857089557342576
2019-03-06,-0.007246692743621233
2019-03-07,-0.005039682592183847
2019-03-08,-0.0065595503940982375
2019-03-11,-0.009756861865504708
2019-03-12,-0.0018831769257051587
2019-03-13,0.001021938828639081
2019-03-14,0.0046401919339437644
2019-03-15,0.0009550247072827381
2019-03-18,0.006677401557829386
2019-03-19,0.005741662266095321
2019-03-20,-2.3122867650188228e-05
2019-03-21,0.0007379973605375068
2019-03-22,0.009525667250374611
2019-03-25,0.0056844709243268204
2019-03-26,0.0016529799633173067
2019-03-27,0.004823370826818253
2019-03-28,-0.00028869391464666355
2019-03-29,-0.010859696140660714
2019-04-01,-0.010864573244792196
2019-04-02,-0.0030056164769965074
2019-04-03,-0.004999170769531575
2019-04-04,-0.0036126695123986433
2019-04-08,0.003645980616074969
2019-04-09,-0.002509236597213728
2019-04-10,-0.002293994699987943
2019-04-11,0.0022555878114097275
2019-04-12,0.0025617499444694908
2019-04-15,0.0009922411150681265
2019-04-16,0.00429564169226377
2019-04-17,0.0029621967210888157
2019-04-18,0.0034194825684803684
2019-04-19,0.0019727658710160245
2019-04-22,0.0037524875379294775
2019-04-23,0.0014285439990660634
2019-04-24,0.004082917189390245
2019-04-25,0.0009956049642299153
2019-04-26,0.006310920800389454
2019-04-29,0.0073068771527680515
2019-04-30,0.00633105509363327
2019-05-06,0.0036675551544206736
2019-05-07,0.005670823387269682
2019-05-08,0.005757595113878584
2019-05-09,-0.01024439096773171
2019-05-10,-0.007162608498127214
2019-05-13,-0.005902082911620185
2019-05-14,-0.0023931260017273637
2019-05-15,-0.0025935502337716635
2019-05-16,0.00921699588754265
2019-05-17,0.008569862558256189
2019-05-20,0.0035980593541780417
2019-05-21,0.005529078953834379
2019-05-22,0.004204977627514574
2019-05-23,0.003594306381572994
2019-05-24,0.0008351682898856145
2019-05-27,0.004272695248653438
2019-05-28,0.0027558206506572425
2019-05-29,-0.002225879068893645
2019-05-30,-0.0029585277329353
2019-05-31,-0.005822644320729294
2019-06-03,-0.006192152356869138
2019-06-04,-0.006621210706077383
2019-06-05,-0.003372343783973858
2019-06-06,-0.002701340848023353
2019-06-10,-0.0029490558915016667
2019-06-11,-0.0002762103572905225
2019-06-12,-0.001009083623481082
2019-06-13,-0.004463585292021687
2019-06-14,-0.00957307465942469
2019-06-17,-0.004923157684939686
2019-06-18,-0.0047331191184027226
2019-06-19,-0.002734352824222984
2019-06-20,2.1866591504760696e-05
2019-06-21,0.012454124869871047
2019-06-24,0.011983211917490535
2019-06-25,0.003888151483573455
2019-06-26,-0.0028098343184712812
2019-06-27,-0.005110099003874961
2019-06-28,-0.010384491274301064
2019-07-01,0.003605886036783988
2019-07-02,0.0033955342282798416
2019-07-03,0.0174536177228966
2019-07-04,0.01353852022280216
2019-07-05,0.01088605543472121
2019-07-08,0.0029530944526582528
2019-07-09,0.000648252051770166
2019-07-10,-0.00330509469241555
2019-07-11,-0.0009988067817134456
2019-07-12,-0.005207547222219155
2019-07-15,0.0004523717499947937
2019-07-16,0.0012631844806398223
2019-07-17,0.0002836077014525323
2019-07-18,-0.0002204874611258477
2019-07-19,0.0039329327315861355
2019-07-22,0.0003544980964017251
2019-07-23,0.002265233249278428
2019-07-24,0.00569368588860486
2019-07-25,0.0013109208365298004
2019-07-26,-0.0026443100149396697
2019-07-29,-0.0006692925780681369
2019-07-30,0.0059994773137058074
2019-07-31,-0.0011022301924221087
2019-08-01,0.0014112327961939668
2019-08-02,0.0007422414206846445
2019-08-05,0.00829376000688777
2019-08-06,-0.0041055600553771875
2019-08-07,0.0008556838662721975
2019-08-08,0.008419424211106046
2019-08-09,0.003193870704423009
2019-08-12,-0.0041492013924279494
2019-08-13,-0.0020636235141476625
2019-08-14,0.0003264564399774114
2019-08-15,-0.00659216705382212
2019-08-16,-0.004298241223932981
2019-08-19,0.001078218189163105
2019-08-20,-0.0016486720334891675
2019-08-21,-0.003165935645489691
2019-08-22,-0.0033187670566613018
2019-08-23,-0.001165514305191336
2019-08-26,-0.006464936444622114
2019-08-27,-0.002295485036250427
2019-08-28,-0.0069397982358543105
2019-08-29,-0.006778879217565335
2019-08-30,-0.00982794847742208
2019-09-02,-0.007102366343837638
2019-09-03,-0.013803226695580963
2019-09-04,-0.011111971970509966
2019-09-05,-0.011327781406063706
2019-09-06,-0.01041897772730192
2019-09-09,-0.001980188380446656
2019-09-10,0.00022747824764446367
2019-09-11,0.0029673681362080034
2019-09-12,0.005653129944207901
2019-09-16,0.010049908805393463
2019-09-17,0.007611867548919193
2019-09-18,0.0025057863159563152
2019-09-19,0.0030789096003884554
2019-09-20,0.003738558216943688
2019-09-23,-0.004524656766797704
2019-09-24,-0.0019622743272584113
2019-09-25,-0.003526952792773347
2019-09-26,-9.101415671279329e-05
2019-09-27,-0.006001788348349735
2019-09-30,0.0008270411172561984
2019-10-08,-0.005351115043020282
2019-10-09,-0.004944673987424191
2019-10-10,-0.003904062853586892
2019-10-11,-0.0017955428755290544
2019-10-14,-0.004581775328329698
2019-10-15,0.0004447896700913497
2019-10-16,0.0038547030377402113
2019-10-17,-0.0017429677011278639
2019-10-18,0.0038357816605640908
2019-10-21,-0.00016956304397549096
2019-10-22,0.0016146965218094677
2019-10-23,0.005642378918650609
2019-10-24,0.0073548771013420226
2019-10-25,0.003210945113826554
2019-10-28,0.005909700710668874
2019-10-29,0.002996159665754521
2019-10-30,-1.0140528372021979e-06
2019-10-31,0.0006466672277659173
2019-11-01,-0.0018523376519217578
2019-11-04,0.002913805296560759
2019-11-05,0.006445890575576513
2019-11-06,0.008790341386213247
2019-11-07,0.006994781464677136
2019-11-08,0.004455375160606987
2019-11-11,-0.000561365102467224
2019-11-12,-0.002671876502170715
2019-11-13,-0.006183023078674968
2019-11-14,-0.00481358577983802
2019-11-15,-0.01021439504726879
2019-11-18,-0.02053882747178522
2019-11-19,-0.015235752450802586
2019-11-20,-0.013256756962326168
2019-11-21,-0.012232903223513853
2019-11-22,-0.005386135329251467
2019-11-25,0.007405654862849086
2019-11-26,0.0076214111349652254
2019-11-27,0.0021806871409554072
2019-11-28,0.005763830414497218
2019-11-29,0.007872370876393038
2019-12-02,0.0046657302068274596
2019-12-03,0.005915177414301989
2019-12-04,0.0029856420889253395
2019-12-05,0.006521906514183147
2019-12-06,0.0016524525192863834
2019-12-09,0.005212985838936427
2019-12-10,-0.0038447985275060007
2019-12-11,0.0007389658133024161
2019-12-12,-0.007573924173027904
2019-12-13,-0.0037647403837480532
2019-12-16,-0.005330293100372869
2019-12-17,-0.0038916712670717278
2019-12-18,0.00123604497627211
2019-12-19,0.0005410281541872082
2019-12-20,-0.005813735660081002
2019-12-23,-0.00610292850976734
2019-12-24,-0.004533568452966834
2019-12-25,-0.006806928564058724
2019-12-26,-0.006206474782997712
2019-12-27,0.0013676841894118656
2019-12-30,0.0005402273153689748
2019-12-31,0.0005452290390101193
2020-01-02,-0.0009422943641163367
2020-01-03,0.007974906560306376
2020-01-06,0.015079328897863589
2020-01-07,0.013880201675365914
2020-01-08,0.016776931621162186
2020-01-09,0.014990411385291514
2020-01-10,0.010701708306722414
2020-01-13,0.011918177265153665
2020-01-14,0.018102426201303597
2020-01-15,0.01810285901529657
2020-01-16,0.022776304815106004
2020-01-17,0.03517412765376203
2020-01-20,0.02730164323133285
2020-01-21,0.025853380520427988
2020-01-22,0.02145780418591154
2020-01-23,0.019100434035861362
2020-02-03,-0.000989147659293886
2020-02-04,-0.0002400114287378352
2020-02-05,0.006028292111590727
2020-02-06,0.010869063398871795
2020-02-07,0.0003402576999273245
2020-02-10,0.006137078960317448
2020-02-11,0.009023554433742646
2020-02-12,0.011324120342960313
2020-02-13,0.012641764133814858
2020-02-14,0.017966468557268637
2020-02-17,0.0335570819371655
2020-02-18,0.03362390629826299
2020-02-19,0.01810680562201137
2020-02-20,0.010943481892586166
2020-02-21,0.004542209563987341
2020-02-24,-0.01524697993219606
2020-02-25,-0.0179728588365499
2020-02-26,-0.005794527276739865
2020-02-27,-0.0065380230792878484
2020-02-28,0.0006854314751986654
2020-03-02,0.0053501798252884765
2020-03-03,0.0027223167638424778
2020-03-04,0.006327952232630399
2020-03-05,0.01632113185320091
2020-03-06,0.024908078946442078
2020-03-09,0.019072515614716165
2020-03-10,0.012054063249081273
2020-03-11,0.018917530547397532
2020-03-12,0.02864753024784407
2020-03-13,0.00616931638307764
2020-03-16,0.009763943470951192
2020-03-17,-0.007706298002823474
2020-03-18,-0.0147007048828366
2020-03-19,-0.030290115898202984
2020-03-20,-0.028601231950864517
2020-03-23,-0.02617008069813126
2020-03-24,-0.005602906360369687
2020-03-25,0.004090914169220278
2020-03-26,0.004197002179782241
2020-03-27,0.009129555620980957
2020-03-30,0.011184964286798132
2020-03-31,0.007004056481823576
2020-04-01,0.001834145980067363
2020-04-02,-0.0014385980829190893
2020-04-03,-0.005080712892402485
2020-04-07,-0.004453065966036807
2020-04-08,0.0019950876160057087
2020-04-09,0.006059619972842894
2020-04-10,0.012609573507487416
2020-04-13,0.01299532871943166
2020-04-14,0.012319513898502018
2020-04-15,0.010539134089847973
2020-04-16,0.006668726918832877
2020-04-17,0.0033132217654753566
2020-04-20,0.008694736576414315
2020-04-21,0.01816544185727611
2020-04-22,0.008968934571466507
2020-04-23,0.00625828560573531
2020-04-24,0.012747562418399267
2020-04-27,0.014125891287571194
2020-04-28,0.0015850173827587355
2020-04-29,0.0009400627937570655
2020-04-30,0.01114653946504696
2020-05-06,0.006132037089427474
2020-05-07,0.007789296616637405
2020-05-08,0.012645596778975744
2020-05-11,0.013161390987700373
2020-05-12,0.006932970326505598
2020-05-13,0.003507700422079032
2020-05-14,-0.0002479863129758124
2020-05-15,-0.002884416380983029
2020-05-18,0.0039039115630857824
2020-05-19,0.0037543043244012125
2020-05-20,-0.0026026398482819485
2020-05-21,-0.004992998278191083
2020-05-22,-0.003220466129266902
2020-05-25,-0.0013085445325625514
2020-05-26,-0.006760115098234225
2020-05-27,0.000286494348467399
2020-05-28,0.0061643655288070726
2020-05-29,0.0027718695923993272
2020-06-01,-0.0029204442637474496
2020-06-02,0.0016497351936347812
2020-06-03,0.006437796409844505
2020-06-04,0.003984253414021909
2020-06-05,0.007037026222399705
2020-06-08,0.012745807232744016
2020-06-09,0.0075449416818663805
2020-06-10,0.0023914691184989895
2020-06-11,-0.0028041064131500617
2020-06-12,-0.0012170057099394511
2020-06-15,0.004433231188048049
2020-06-16,0.017524357788890988
2020-06-17,0.015606906317353156
2020-06-18,0.020389034636420646
2020-06-19,0.017807120809409407
2020-06-22,-0.0010310573272859815
2020-06-23,-0.020400639546754893
2020-06-24,-0.02260771002641475
2020-06-29,-0.044557694455130706
2020-06-30,-0.039598730146526026
2020-07-01,-0.03547923829804012
2020-07-02,-0.02373407821779336
2020-07-03,-0.0012684226357581457
2020-07-06,0.002544794440310437
2020-07-07,0.0019684923561890597
2020-07-08,0.004580556365792774
2020-07-09,-0.004802203017739953
2020-07-10,-0.017818667322776677
2020-07-13,-0.019784607685436363
2020-07-14,-0.022842223229752684
2020-07-15,-0.021533493506682568
2020-07-16,-0.003425169737683982
2020-07-17,-0.008557219647538855
2020-07-20,-0.009654533534874181
2020-07-21,-0.005103631398291982
2020-07-22,0.0015802043901812935
2020-07-23,-0.0010443078187188804
2020-07-24,0.016267708298662174
2020-07-27,0.022291857507933756
2020-07-28,0.012142713351736497
2020-07-29,0.008771625744635017
2020-07-30,0.008342402224987718
2020-07-31,-0.004073573459496199
2020-08-03,-0.014458390024550658
2020-08-04,-0.01499656013290264
2020-08-05,-0.032268020736368246
2020-08-06,-0.034950514858123054
2020-08-07,-0.024899494035865603
2020-08-10,-0.016755203005399115
2020-08-11,-0.006777272371568086
2020-08-12,-0.007666819226282314
2020-08-13,0.0012627204891376299
2020-08-14,-0.006963230793855055
2020-08-17,-0.007653699311950857
2020-08-18,-0.010425614278508903
2020-08-19,-0.004057626550240102
2020-08-20,0.0010401726496577315
2020-08-21,0.0059342506530089935
2020-08-24,0.004346168863200265
2020-08-25,0.007779675169679273
2020-08-26,0.01888300988227528
2020-08-27,0.011872756888719416
2020-08-28,0.0011463567717885804
2020-08-31,-0.01166050812590302
2020-09-01,-0.018466185272890664
2020-09-02,-0.027143021328157144
2020-09-03,-0.025087488010723857
2020-09-04,-0.015588262263846376
2020-09-07,-0.006831228248478982
2020-09-08,0.001586577365985466
2020-09-09,0.0005934173962685151
2020-09-10,0.0037298452539454583
2020-09-11,-0.002235456150709657
2020-09-14,-0.0021579064527157453
2020-09-15,0.001660510635392842
2020-09-16,0.014088145233329796
2020-09-17,0.014229599895899614
2020-09-18,0.013447836617632509
2020-09-21,0.006279589287936628
2020-09-22,0.0041949968398828676
2020-09-23,0.002731484368486513
2020-09-24,0.004212664663286776
2020-09-25,0.0118448811282073
2020-09-28,0.01915313964976445
2020-09-29,0.009840876995568348
2020-09-30,0.0047227569015054
2020-10-09,-0.0016849358809932023
2020-10-12,-0.00906779418103151
2020-10-13,-0.00352665796251109
2020-10-14,-0.007109196625042682
2020-10-15,-0.0052106445014498196
2020-10-16,-0.012648312214516615
2020-10-19,-0.0061787635404978655
2020-10-20,-0.007645291407372785
2020-10-21,-5.1931905295342015e-05
2020-10-22,0.0048195559282279005
2020-10-23,0.016538151623909685
2020-10-26,0.01386835348080786
2020-10-27,0.004964227530056782
2020-10-28,-0.0009867954236971264
2020-10-29,-0.011807797312533778
2020-10-30,-0.02188251210549233
2020-11-02,-0.023270750116437998
2020-11-03,-0.02066500872586792
2020-11-04,-0.033833150895421674
2020-11-05,-0.024591327311696835
2020-11-06,-0.014007841607526612
2020-11-09,-0.028596219989523462
2020-11-10,-0.027336307777235766
2020-11-11,-0.01825031250328617
2020-11-12,-0.017028877159744375
2020-11-13,-0.019047896746180105
2020-11-16,-0.01498888671084038
2020-11-17,-0.014334911924121722
2020-11-18,-0.010346931158032752
2020-11-19,-0.015898448077580007
2020-11-20,-0.01853026196167636
2020-11-23,-0.009153946061706324
2020-11-24,-0.0040080092031859514
2020-11-25,-0.001808610855387716
2020-11-26,0.004121070683975131
2020-11-27,0.012860279230581976
2020-11-30,0.015327487091341043
2020-12-01,0.018334861212334685
2020-12-02,0.012164340977192427
2020-12-03,0.00508120972969988
2020-12-04,0.0024520168601668522
2020-12-07,0.003921974443991916
2020-12-08,-0.0006147021621086494
2020-12-09,0.003244343711596054
2020-12-10,0.003088039016287622
2020-12-11,-0.00018299818671901023
2020-12-14,-0.002544638324262922
2020-12-15,0.0046467889706357434
2020-12-16,0.0021490649149930926
2020-12-17,0.006801366195161222
2020-12-18,0.008039060214928659
2020-12-21,0.01147422630363805
2020-12-22,-0.0031565545436725217
2020-12-23,0.0005780105619980769
2020-12-24,-0.0006557401735793437
2020-12-25,0.004125553997094543
2020-12-28,0.013142698777875217
2020-12-29,0.019108002378930795
2020-12-30,0.023767179991436155
2020-12-31,0.01463690456288547
2021-01-04,-0.0026343494089550532
2021-01-05,-0.009665560613152626
2021-01-06,-0.010757631595013495
2021-01-07,-0.029658609611110373
2021-01-08,-0.021118919343654348
2021-01-11,-0.01176983424958212
2021-01-12,-0.03489014211823873
2021-01-13,-0.019151940064889947
2021-01-14,0.0038561053221888852
2021-01-15,0.02219003737269387
2021-01-18,0.023190179616611704
2021-01-19,0.028980607041218603
2021-01-20,0.010397174649755914
2021-01-21,0.005540281989349825
2021-01-22,-0.0036357500282792124
2021-01-25,-0.014810886149852615
2021-01-26,0.00511934740877122
2021-01-27,0.006809515252548545
2021-01-28,0.012002905694493957
2021-01-29,0.005268341419077786
2021-02-01,0.008640428933484282
2021-02-02,0.006551639884111742
2021-02-03,0.01603196298112958
2021-02-04,-0.013042909487371766
2021-02-05,-0.026732064955954246
2021-02-08,-0.056493642722901846
2021-02-09,-0.056042362379405325
2021-02-10,-0.0649119274019809
2021-02-18,-0.05834384254491183
2021-02-19,-0.04164889714943243
2021-02-22,-0.01998814742214438
2021-02-23,-0.01763333940539219
2021-02-24,-0.010837838087636336
2021-02-25,-0.009331037222507308
2021-02-26,-0.014778458268007789
2021-03-01,-0.036933902295951046
2021-03-02,-0.03595051585339823
2021-03-03,-0.015978664613537134
2021-03-04,-0.006972407846461727
2021-03-05,-0.009540018575957362
2021-03-08,-0.007947163592979829
2021-03-09,-0.0013386829742075487
2021-03-10,-0.01177012670609874
2021-03-11,-0.005579140065798554
2021-03-12,-0.00615494991814842
2021-03-15,-0.0030904427913793437
2021-03-16,-0.00036742070564147866
2021-03-17,-0.0016026456157275486
2021-03-18,-0.001967984997161925
2021-03-19,0.004449752279574563
2021-03-22,0.006990526283742807
2021-03-23,0.007792572420693134
2021-03-24,0.0009636393506818122
2021-03-25,0.009557467424642248
2021-03-26,0.010565326583660736
2021-03-29,0.00719591697602283
2021-03-30,-0.002798440976035573
2021-03-31,0.00669111660860917
2021-04-01,-0.006024351913328421
2021-04-02,-0.013428967098004575
2021-04-06,-0.0020957736551491177
2021-04-07,0.0036538518068747923
2021-04-08,3.712355677580256e-05
2021-04-09,-0.0050733442410764665
2021-04-12,0.0020358096668143984
2021-04-13,-0.004477798632143912
2021-04-14,0.0034066797212126687
2021-04-15,0.0019899245182390182
2021-04-16,0.02120838963052201
2021-04-19,0.015575294482320914
2021-04-20,0.02197537398172078
2021-04-21,0.018012671222052263
2021-04-22,0.01611834238914213
2021-04-23,0.015024588994286742
2021-04-26,0.009986784890802979
2021-04-27,-0.004438344154479566
2021-04-28,-0.005463007912027381
2021-04-29,0.0019904039023385667
2021-04-30,-0.0025864415465482998
2021-05-06,0.004354544466513947
2021-05-07,0.016644510799064514
2021-05-10,0.014958398629493655
2021-05-11,0.0054606703294792155
2021-05-12,0.008899426659986654
2021-05-13,0.007201015509586201
2021-05-14,0.00023756898753449131
2021-05-17,-0.003646667280312464
2021-05-18,0.0036302062170583196
2021-05-19,-0.002748050978919586
2021-05-20,0.0028946742727849195
2021-05-21,0.003767601153591267
2021-05-24,0.005554728621037536
2021-05-25,0.005148035719824869
2021-05-26,0.0035690002058474616
2021-05-27,-0.0021732504453331933
2021-05-28,0.0025366344277226224
2021-05-31,-0.00022938028305401236
2021-06-01,-0.007779060717276889
2021-06-02,0.0005829742819035371
2021-06-03,0.008399237283115408
2021-06-04,0.001969501681477816
2021-06-07,-0.0006998744612820226
2021-06-08,-0.0048540559294552015
2021-06-09,0.004135387466642685
2021-06-10,0.00028346433387235227
2021-06-11,0.008028554551149522
2021-06-15,0.006489081103072157
2021-06-16,0.017530269311560834
2021-06-17,0.0037371120377448983
2021-06-18,0.006222426587356177
2021-06-21,0.0017980263743334404
2021-06-22,0.0037558362566224007
2021-06-23,0.01116788905801375
2021-06-24,0.013672125852880137
2021-06-25,0.0036946664185559565
2021-06-28,0.009806738324309646
2021-06-29,0.001254890168558804
2021-06-30,0.009292027820993804
2021-07-01,0.02135177794335604
2021-07-02,0.021281802680403958
2021-07-05,0.016087181777116783
2021-07-06,0.015322240276268675
2021-07-07,0.006127816485210831
2021-07-08,-0.0005253512465830459
2021-07-09,0.0004701464864953972
2021-07-12,0.0017145183734024404
2021-07-13,0.01785076006073149
2021-07-14,0.02684811713134811
2021-07-15,0.015732333771280943
2021-07-16,0.02268921858444675
2021-07-19,0.016485574913305018
2021-07-20,0.016903987969676584
2021-07-21,0.007469451754056652
2021-07-22,0.016959732524969677
2021-07-23,0.021509701432731725
2021-07-26,0.015787249887953592
2021-07-27,0.007041031798937194
2021-07-28,0.01640599687711459
2021-07-29,0.008125708649106564
2021-07-30,0.004814250105039351
2021-08-02,-0.0033846224484595892
2021-08-03,0.007773516951674848
2021-08-04,-0.010446591334374995
2021-08-05,-0.014393301913672718
2021-08-06,-0.01749450578810667
2021-08-09,-0.013268386177931633
2021-08-10,-0.01512307848453773
2021-08-11,-0.014850070693789528
2021-08-12,-0.0032574055629663937
2021-08-13,-0.0032162040857648296
2021-08-16,0.012103695809684468
2021-08-17,0.02156655481172795
2021-08-18,0.01888992367324365
2021-08-19,0.012034184565687629
2021-08-20,0.015512579182018428
2021-08-23,0.01519692219497059
2021-08-24,0.008779107317355737
2021-08-25,-0.014614533911240388
2021-08-26,-0.020927864170582892
2021-08-27,-0.03487364455882071
2021-08-30,-0.03566884035387213
2021-08-31,-0.02695647690547252
2021-09-01,-0.014197234666419874
2021-09-02,-0.0031795993385212926
2021-09-03,0.01005869788733875
2021-09-06,0.004014901237433862
2021-09-07,0.012389959277715338
2021-09-08,0.022263336121360926
2021-09-09,0.0049319205703605845
2021-09-10,-0.0020487625428500904
2021-09-13,0.0026812883059978143
2021-09-14,-0.006475368811816089
2021-09-15,-0.0109985014555301
2021-09-16,-0.01195728460038189
2021-09-17,-0.004582001338683756
2021-09-22,-0.0246792627408382
2021-09-23,-0.013987791894657079
2021-09-24,-0.0192210170025292
2021-09-27,-0.013920655511143038
2021-09-28,-0.01752949357454878
2021-09-29,-0.0044758828246905065
2021-09-30,-0.014344161767498838
2021-10-08,0.0004132384716675451
2021-10-11,0.014054456747701376
2021-10-12,0.011434156722398427
2021-10-13,0.0038471252101978156
2021-10-14,0.009865621828391697
2021-10-15,-0.006945176016192215
2021-10-18,-0.01128573059004135
2021-10-19,-0.0038417379844076513
2021-10-20,0.0062655159112499
2021-10-21,-0.0068717294946108575
2021-10-22,0.004146317002267998
2021-10-25,-0.003927769944380802
2021-10-26,-0.004835231609542395
2021-10-27,-0.008438823605323213
2021-10-28,-0.0010394917814194743
2021-10-29,-0.006282386147479536
2021-11-01,-0.0014090977342507563
2021-11-02,0.0009067059615314975
2021-11-03,-0.0022535096315118054
2021-11-04,-0.006891423840560466
2021-11-05,-0.001775135328745724
2021-11-08,-0.024154230348248686
2021-11-09,-0.026788253276350767
2021-11-10,-0.018559373918977773
2021-11-11,-0.004916047792574917
2021-11-12,-0.003103062653115265
2021-11-15,0.01813806643513131
2021-11-16,0.02691923578288167
2021-11-17,0.02267306311260342
2021-11-18,0.008157389288068648
2021-11-19,0.014634997083081287
2021-11-22,0.014119522921073144
2021-11-23,0.020727837135653397
2021-11-24,0.017411045940858256
2021-11-25,0.022505496273144462
2021-11-26,0.0133826302647132
2021-11-29,0.008246567132150027
2021-11-30,-0.014061589189291849
2021-12-01,-0.007174044231785497
2021-12-02,-0.014962429461826196
2021-12-03,-0.01138710177269818
2021-12-06,-0.016548265118218282
2021-12-07,-0.004211428414974079
2021-12-08,0.0022396928942899083
2021-12-09,0.010684510815635845
2021-12-10,0.00604551437978435
2021-12-13,0.006716179643388293
2021-12-14,0.001701280451824324
2021-12-15,-0.005284379363606068
2021-12-16,-0.005956895261759824
2021-12-17,-0.012716397306292771
2021-12-20,-0.0123191726896269
2021-12-21,-0.005118152585801471
2021-12-22,0.0008411600946501251
2021-12-23,0.002208601495176846
2021-12-24,0.004885905923249167
2021-12-27,0.0005642456072143901
2021-12-28,-0.005981772213612098
2021-12-29,-0.007873650100928503
2021-12-30,-0.02139090592755276
2021-12-31,-0.022095214438870615
2022-01-04,-0.022163127457671954
2022-01-05,-0.02052898259930629
2022-01-06,-0.02393939987841103
2022-01-07,-0.00789284451454311
2022-01-10,0.0043490973684988665
2022-01-11,0.006736846777630994
2022-01-12,0.00561391630078328
2022-01-13,-0.005051389431862213
2022-01-14,-0.009036137810397065
2022-01-17,-0.005189793667730343
2022-01-18,0.00223790434487401
2022-01-19,0.004930376513077851
2022-01-20,0.01974560659051651
2022-01-21,0.01850385858358053
2022-01-24,0.0028841601643989044
2022-01-25,-0.011900998954912501
2022-01-26,-0.015962757089953504
2022-01-27,-0.02160610895565321
2022-01-28,-0.021702158445247657
2022-02-07,-0.007425537407209656
2022-02-08,0.002348683683917035
2022-02-09,-0.0015128352694514314
2022-02-10,0.006752797968838367
2022-02-11,0.00438357457453502
2022-02-14,0.007502440812052166
2022-02-15,0.013428786211909275
2022-02-16,0.022494153497057787
2022-02-17,0.029493445998270577
2022-02-18,0.02536202347279317
2022-02-21,0.02245425726735081
2022-02-22,0.008402193537422133
2022-02-23,0.014537571632060492
2022-02-24,0.005549812179192498
2022-02-25,0.01279803946861114
2022-02-28,0.01723491045227487
2022-03-01,0.030388347759454433
2022-03-02,0.034818552482631784
2022-03-03,0.027660742774892604
2022-03-04,0.020436047878162583
2022-03-07,0.019823800780750293
2022-03-08,0.029719145658596555
2022-03-09,0.009016069734323836
2022-03-10,-0.004970854270541759
2022-03-11,-0.00970596439412354
2022-03-14,-0.014263635690699262
2022-03-15,-0.0383168141242661
2022-03-16,-0.02865535842566384
2022-03-17,-0.007601388569825794
2022-03-18,0.004306183448320533
2022-03-21,-0.0011117727818259395
2022-03-22,-0.0013989461232959965
2022-03-23,0.005326377927555099
2022-03-24,0.0026667503887680636
2022-03-25,-0.005579084059376281
2022-03-28,-0.00474225588145283
2022-03-29,-0.004274401999896543
2022-03-30,0.005034012670291606
2022-03-31,0.014500161585582365
2022-04-01,0.011223096457168662
2022-04-06,0.015427999488473506
2022-04-07,0.01079604651668506
2022-04-08,0.006554838977319217
2022-04-11,-0.0012968836903304026
2022-04-12,0.007468877121276665
2022-04-13,-0.0014296724641450417
2022-04-14,0.0037716780217257675
2022-04-15,0.0020216359365949482
2022-04-18,0.01182558463604709
2022-04-19,0.004617665673634405
2022-04-20,0.0017816503225137545
2022-04-21,0.000861203361248418
2022-04-22,-0.0195349541431587
2022-04-25,-0.02130302477619493
2022-04-26,0.0022193298412697543
2022-04-27,0.006087579618061911
2022-04-28,0.009658692027643669
2022-04-29,0.01922230823936319
2022-05-05,0.014918591151950981
2022-05-06,0.0010773048011973527
2022-05-09,-0.0035340395609354674
2022-05-10,-0.01347022564792141
2022-05-11,-0.006396891683003621
2022-05-12,0.0006331700211724932
2022-05-13,-0.00047520960158328046
2022-05-16,0.004438384533963703
2022-05-17,0.011884025543572168
2022-05-18,0.008927322113757845
2022-05-19,0.007373712846688016
2022-05-20,0.010089657416900056
2022-05-23,-2.019022083288302e-05
2022-05-24,-0.013006511500587473
2022-05-25,-0.005349280251953997
2022-05-26,-0.0032283140631447597
2022-05-27,0.0020115280056785395
2022-05-30,0.0015972515523607345
2022-05-31,-0.0006999167954705142
2022-06-01,-0.0057419294960947415
2022-06-02,-0.008271614956267322
2022-06-06,-0.0008398286857635093
2022-06-07,0.0022197560011677875
2022-06-08,0.0012991053060911317
2022-06-09,0.0026795157487682526
2022-06-10,0.0038864374510315172
2022-06-13,-0.0037472737188834204
2022-06-14,-0.011964283732406362
2022-06-15,-0.0012139417053875817
2022-06-16,0.0005256941231752341
2022-06-17,0.0016727608918412108
2022-06-20,-0.0012748784250885027
2022-06-21,0.008042105170104449
2022-06-22,0.0012001662668736923
2022-06-23,-0.004664960739301002
2022-06-24,-0.004714223421634991
2022-06-27,-0.0009619420827245168
2022-06-28,0.002400554308304162
2022-06-29,0.013634124379128953
2022-06-30,0.017783094727401902
2022-07-01,0.010754303492663878
2022-07-04,0.00830709415613565
2022-07-05,0.001458003331701714
2022-07-06,0.002452616180518029
2022-07-07,0.005509509641188244
2022-07-08,0.01604742346294478
2022-07-11,0.008468000190600709
2022-07-12,0.0033784171275124913
2022-07-13,-0.005621941252130229
2022-07-14,-0.015693666034703173
2022-07-15,-0.020614412608676014
2022-07-18,-0.012593317105139364
2022-07-19,-0.006901174192264005
2022-07-20,0.0007881158465270263
2022-07-21,-0.00046548612181266253
2022-07-22,0.0005948813095929938
2022-07-25,0.009370883453755315
2022-07-26,0.017916728509958478
2022-07-27,0.010893753690813142
2022-07-28,0.0060408039045613746
2022-07-29,0.000562999596402975
2022-08-01,-0.0037942359184239627
2022-08-02,-0.003049097256194013
2022-08-03,0.005607710797595951
2022-08-04,0.004184737690337888
2022-08-05,0.0028599831567681063
2022-08-08,0.007697314132573941
2022-08-09,0.005892271694707511
2022-08-10,-0.003971103782048596
2022-08-11,0.01336515845542752
2022-08-12,0.011798982875977356
2022-08-15,0.005110908625604255
2022-08-16,0.004853733328407511
2022-08-17,0.0007780797567617445
2022-08-18,-0.016675794824165
2022-08-19,-0.017086306256708376
2022-08-22,-0.01856188055322474
2022-08-23,-0.029654427017694898
2022-08-24,-0.039288628187096705
2022-08-25,-0.020317253062660096
2022-08-26,-0.01005258878948431
2022-08-29,-0.007013516296547048
2022-08-30,0.0011483406196334082
2022-08-31,0.02402916044149043
2022-09-01,0.015272911276764507
2022-09-02,0.006005149972814124
2022-09-05,0.002531408048931613
2022-09-06,-0.00011803421578755529
2022-09-07,-0.017294184565556057
2022-09-08,-0.014086852924158684
2022-09-09,0.0004909384156035757
2022-09-13,0.0049076704379698785
2022-09-14,0.006492143275234771
2022-09-15,0.0214703316064875
2022-09-16,0.023825866215682424
2022-09-19,0.014208719283662874
2022-09-20,-0.0001226131137087201
2022-09-21,-0.004214801223953801
2022-09-22,-0.004973126803469624
2022-09-23,-0.007565257734374609
2022-09-26,-0.000517404799793262
2022-09-27,0.015154701388196051
2022-09-28,0.012831849551109248
2022-09-29,0.007999848671220564
2022-09-30,0.0020840391604702753
2022-10-10,-0.0036682142629439404
2022-10-11,-0.012806335585025086
2022-10-12,-0.004353451563465239
2022-10-13,-0.003137837084047395
2022-10-14,-0.0005919936061680123
2022-10-17,0.019134907742116364
2022-10-18,0.0222665287829285
2022-10-19,0.016063284891193817
2022-10-20,0.004822868532867579
2022-10-21,0.01520170632207174
2022-10-24,-0.0018594023382773744
2022-10-25,-0.015875280491696106
2022-10-26,-0.014030882762959617
2022-10-27,-0.0013631004099891406
2022-10-28,-0.01205732115429494
2022-10-31,-0.02029554526580997
2022-11-01,-0.007877424242069525
2022-11-02,-0.0070027747511960834
2022-11-03,-0.011732995634184258
2022-11-04,-0.018989382032586766
2022-11-07,-0.01625571728706314
2022-11-08,-0.017343717474043282
2022-11-09,-0.012820085547147652
2022-11-10,-0.01957160585372045
2022-11-11,-0.009034910022501307
2022-11-14,-0.007652344156398623
2022-11-15,-0.008510874300228923
2022-11-16,-0.00883501684070268
2022-11-17,-0.0038641033191230967
2022-11-18,-0.008453214132320669
2022-11-21,-0.006235218571292918
2022-11-22,-0.0028057907540054543
2022-11-23,-0.0010698718836063999
2022-11-24,-0.003558044897166244
2022-11-25,0.0003516327774434336
2022-11-28,-0.0033266620493028407
2022-11-29,-0.002582606455513517
2022-11-30,-0.0036102138945443424
2022-12-01,0.003883339439310976
2022-12-02,0.007667419277891316
2022-12-05,0.0059416607558937665
2022-12-06,0.007929037311701808
2022-12-07,0.009352321254978771
2022-12-08,1.1078421645310116e-06
2022-12-09,0.002502093389904321
2022-12-12,0.005537194680317284
2022-12-13,0.0019588031575225665
2022-12-14,0.0023465345864035723
2022-12-15,0.012641978569999938
2022-12-16,0.0075993429177287075
2022-12-19,0.0007993548120458823
2022-12-20,0.002155388246896128
2022-12-21,-0.00022383890104850368
2022-12-22,-0.008629459654870044
2022-12-23,-0.007803961291430801
2022-12-26,-0.004636994122257121
2022-12-27,-0.0005073550565997146
2022-12-28,-0.004773600603860076
2022-12-29,-0.003517429353606858
2022-12-30,-0.0032793128001551743
2023-01-03,-0.006637285343387308
2023-01-04,-0.006226802364433449
2023-01-05,-0.00358194485497799
2023-01-06,-0.0014353467398590704
2023-01-09,-0.009332745950878015
2023-01-10,-0.008034801630411101
2023-01-11,-0.011807746817880285
2023-01-12,-0.0143386489660112
2023-01-13,-0.014216167215658482
2023-01-16,-0.007322359154902449
2023-01-17,-0.006328361735909914
2023-01-18,-0.005024950339317623
2023-01-19,-0.0026913083622358107
2023-01-20,-0.005873101401478334
2023-01-30,-0.006977046526796416
2023-01-31,-0.005815644731424408
2023-02-01,-0.008097671721938784
2023-02-02,-0.006919606518282149
2023-02-03,-0.010134836665967647
2023-02-06,-0.0041780146943265605
2023-02-07,-0.007430156538423463
2023-02-08,-0.008212521051329264
2023-02-09,-0.006887346460054042
2023-02-10,-0.003284181201559931
2023-02-13,-0.006703763783863635
2023-02-14,-0.008167274551264703
2023-02-15,-0.010537098397232611
2023-02-16,-0.01036489211100118
2023-02-17,-0.005644282323239699
2023-02-20,-0.006142768675911958
2023-02-21,-0.0018068769778248495
2023-02-22,0.00555626344924728
2023-02-23,0.0039924871276051915
2023-02-24,0.001583932438748454
2023-02-27,0.0031414106813614957
2023-02-28,-0.002028113093025638
2023-03-01,-0.005623408715244459
2023-03-02,-0.0030577826414544696
2023-03-03,-0.004184091651431278
2023-03-06,0.007348843814337473
2023-03-07,0.011998685736527338
2023-03-08,0.004706301146199364
2023-03-09,0.007890507372524978
2023-03-10,0.018094979864941917
2023-03-13,0.013425317595577125
2023-03-14,0.007101274965299947
2023-03-15,0.010835557629772086
2023-03-16,0.013284806375879293
2023-03-17,0.003957938165581251
2023-03-20,0.003869728552806196
2023-03-21,0.004071105006250915
2023-03-22,0.0034670315608333418
2023-03-23,-0.0034049367328754998
2023-03-24,-0.0006324525346471065
2023-03-27,0.012522036861690766
2023-03-28,0.021720809191386643
2023-03-29,0.021645199469088987
2023-03-30,0.026540153491145992
2023-03-31,0.0052561742357111925
2023-04-03,-0.006246770948951541
2023-04-04,-0.0005367556291028825
2023-04-06,-0.01191849355198043
2023-04-07,-0.010618761084348893
2023-04-10,-0.0012715617209964327
2023-04-11,-0.00661058048859018
2023-04-12,-0.01560023116865672
2023-04-13,0.012367831203924881
2023-04-14,-0.0023217159237725327
2023-04-17,0.014082094807102676
2023-04-18,0.017867195681501136
2023-04-19,-0.002647317946007338
2023-04-20,-0.0309559263957319
2023-04-21,-0.004839520808973527
2023-04-24,-0.010938600195609577
2023-04-25,-0.021524601477936327
2023-04-26,-0.0014838518133022116
2023-04-27,0.010160955158184182
2023-04-28,-0.0065191539196733875
2023-05-04,-0.007426477571760308
2023-05-05,-0.008947303039352632
2023-05-08,-0.019527935881987243
2023-05-09,-0.028334356644420355
2023-05-10,-0.018574118975314906
2023-05-11,-0.00815443206135521
2023-05-12,-0.005029756180177646
2023-05-15,-0.009916894939161407
2023-05-16,-0.004974063147294521
2023-05-17,-0.004415676072429511
2023-05-18,-0.010237068509414065
2023-05-19,0.0012140911639316847
2023-05-22,0.016694829693994474
2023-05-23,0.030889749788760558
2023-05-24,0.03592423716063642
2023-05-25,0.03199693747579765
2023-05-26,0.015238799105058985
2023-05-29,0.011945295490027728
2023-05-30,0.004602545690147321
2023-05-31,-0.0010878710661642796
2023-06-01,-0.0028677964183548106
2023-06-02,0.011817606381459289
2023-06-05,0.0030332897756040807
2023-06-06,0.005658736054041599
2023-06-07,0.006331160552414082
2023-06-08,-0.0017140619721147804
2023-06-09,-0.0013311987601963837
2023-06-12,0.007763743742046386
2023-06-13,0.007533101364626097
2023-06-14,-0.0022232462414202153
2023-06-15,-0.00016748323513608027
2023-06-16,-0.006566546132038685
2023-06-19,-0.018487045596914133
2023-06-20,-0.023921808755369395
2023-06-21,-0.01953594454616648
2023-06-26,-0.017463366579858336
2023-06-27,-0.00958681670953566
2023-06-28,-0.0056177333967996615
2023-06-29,-0.004034952956190962
2023-06-30,-0.003361407166304859
2023-07-03,-0.0015265470568443483
2023-07-04,-0.001272288287223906
2023-07-05,-0.008965281266918746
2023-07-06,-0.013005985942565614
2023-07-07,-0.005399562787670658
2023-07-10,-0.00019561158014787076
2023-07-11,-0.0070575597479110574
2023-07-12,0.004104097646477596
2023-07-13,-0.009431977302456833
2023-07-14,-0.019614266463947108
2023-07-17,-0.01503695352393469
2023-07-18,-0.012069947045934573
2023-07-19,-0.021583150921337765
2023-07-20,-0.015356186504263838
2023-07-21,-0.016824216980984723
2023-07-24,-0.015241296702278594
2023-07-25,-0.0061504876984578
2023-07-26,0.004445416409520019
2023-07-27,0.004660633901161837
2023-07-28,0.010548004025813542
2023-07-31,0.011547028268118788
2023-08-01,0.007603079921635234
2023-08-02,0.0015440317494913522
2023-08-03,0.002816392638753209
2023-08-04,-0.00030244461566689487
2023-08-07,-0.002190706685782192
2023-08-08,0.0035805878858978027
2023-08-09,0.0035200110729887296
2023-08-10,0.0034426315603888966
2023-08-11,0.0031987017689473173
2023-08-14,0.0026156297167569155
2023-08-15,0.004343919907370111
2023-08-16,0.005856001569760683
2023-08-17,0.0058081423536627715
2023-08-18,0.005630064705558217
2023-08-21,0.009616853437104628
2023-08-22,-0.0012228343161909214
2023-08-23,-0.001557384935105377
2023-08-24,-0.0016908764081063326
2023-08-25,0.00199972579056968
2023-08-28,-0.0029927914865572752
2023-08-29,-0.0019287732764524494
2023-08-30,0.001542838516707817
2023-08-31,0.0014102352629149287
2023-09-01,0.0037850979457218995
2023-09-04,0.004944086195730954
2023-09-05,0.002935719698724861
2023-09-06,-0.004328798058160749
2023-09-07,-0.005529246775524204
2023-09-08,-0.010130048671155622
2023-09-11,-0.012189376992812272
2023-09-12,-0.009215670151323043
2023-09-13,-0.006808707137484281
2023-09-14,-0.00026727112796380223
2023-09-15,0.006551909881997229
2023-09-18,0.006135531085057013
2023-09-19,0.011618682860321299
2023-09-20,0.0073211798506547235
2023-09-21,0.006162961548536159
2023-09-22,0.0026315934294566974
2023-09-25,0.007004075951557417
2023-09-26,0.0018202909452160758
2023-09-27,0.001991969405307062
2023-09-28,0.0008175809800977769
2023-10-09,0.0011253654139351706
2023-10-10,-0.00035238207500834853
2023-10-11,-0.0009862975260127114
2023-10-12,0.008871492369098
2023-10-13,0.003993071542296431
2023-10-16,0.0047682772172274596
2023-10-17,0.006248243844048991
2023-10-18,0.002867008956368676
2023-10-19,-0.0029507841498531556
2023-10-20,-0.006312256315647434
2023-10-23,-0.0066459129677068005
2023-10-24,-0.007678593924418827
2023-10-25,-0.005151228874852601
2023-10-26,-0.003729099490889235
2023-10-27,0.0030258521603280545
2023-10-30,0.0026406031837911403
2023-10-31,0.005062026043846486
2023-11-01,0.006026401067599479
2023-11-02,0.004483484076556642
2023-11-03,0.00505564100263943
2023-11-06,0.006843567288076281
2023-11-07,0.00566151461665884
2023-11-08,-0.0008852799662312687
2023-11-09,0.00017695657549512446
2023-11-10,0.0030931577838392206
2023-11-13,-0.0015754632319294696
2023-11-14,-0.007594356265140741
2023-11-15,-0.005678958823664464
2023-11-16,-0.005237173572397556
2023-11-17,-0.012139303662966536
2023-11-20,-0.005984401060466087
2023-11-21,-0.0028275199435626643
2023-11-22,0.00016320909672298302
2023-11-23,-0.0037390998886762446
2023-11-24,0.007686340276922556
2023-11-27,0.003826167511953923
2023-11-28,0.0008080615907067844
2023-11-29,0.002086097289007525
2023-11-30,0.006234171282173361
2023-12-01,0.0032579456988428915
2023-12-04,0.004422338132706325
2023-12-05,0.004701998723183212
2023-12-06,0.005907180836808667
2023-12-07,0.006477817751032945
2023-12-08,0.006227008870573133
2023-12-11,-6.870254603483922e-05
2023-12-12,0.003953615542693099
2023-12-13,-0.0018395771333782444
2023-12-14,-0.005489514236220218
2023-12-15,-0.010043591617634627
2023-12-18,-0.010340049531864001
2023-12-19,-0.014702580569483875
2023-12-20,-0.012086375933241727
2023-12-21,-0.013356449628731804
2023-12-22,-0.0037957112432302487
2023-12-25,-0.0038639782774049797
2023-12-26,-0.004820923737184022
2023-12-27,-0.005202118904055999
2023-12-28,-0.004526583315898683
2023-12-29,-0.009488975332996363
2024-01-02,-0.0063268427054504126
2024-01-03,-0.008161986655018383
2024-01-04,-0.002456091045846506
2024-01-05,-0.004322680872083382
2024-01-08,-0.001825474665547647
2024-01-09,-0.0013060267689341382
2024-01-10,0.0050960598563247455
2024-01-11,0.002451706719583051
2024-01-12,0.009114570600015
2024-01-15,0.008119628897599929
2024-01-16,0.00770984297992397
2024-01-17,-0.009889816743321298
2024-01-18,-0.017278746470792663
2024-01-19,-0.017257191009619987
2024-01-22,-0.015494311600882845
2024-01-23,-0.007432962849219407
2024-01-24,-0.0005661473452309856
2024-01-25,-0.001134012871925591
2024-01-26,-0.0010909908496501697
2024-01-29,-0.0114501699118216
2024-01-30,-0.024036888838759027
2024-01-31,-0.0212164409625013
2024-02-01,-0.007154826920844896
2024-02-02,-0.005537314260181156
2024-02-05,0.01735515116091338
2024-02-06,0.014008653704420185
2024-02-07,0.011893129441116583
2024-02-08,-0.0027615437952351676
2024-02-19,0.0014403797510518061
2024-02-20,0.006963875363850056
2024-02-21,0.0021936255186270496
2024-02-22,0.0024739149752375407
2024-02-23,0.004924358760172019
2024-02-26,0.0083975895120716
2024-02-27,0.003534110370372214
2024-02-28,0.014384063620474653
2024-02-29,0.005243686826325382
2024-03-01,-0.00020935885398370036
2024-03-04,-0.006855545064221499
2024-03-05,-0.02235127686882559
2024-03-06,-0.011587096491016444
2024-03-07,-0.013886964807137189
2024-03-08,-0.008844577142153214
2024-03-11,-0.0009473704857568543
2024-03-12,0.010169016895288277
2024-03-13,0.009415263968552074
2024-03-14,0.008774964357641635
2024-03-15,0.010497935204350937
2024-03-18,-0.0006537255393674821
2024-03-19,-0.011308199962198544
2024-03-20,-0.02220661392192838
2024-03-21,-0.009362499749778607
2024-03-22,-0.01545788676281725
2024-03-25,-0.007790421299044826
2024-03-26,-0.0015686841301403125
2024-03-27,0.003169076427956108
2024-03-28,-0.006788718811594362
2024-03-29,-0.003343081551936098
2024-04-01,-0.01160152718891759
2024-04-02,-0.00574972525084134
2024-04-03,0.0014137149404947584
2024-04-08,0.0007059607814600549
2024-04-09,-0.002926225924264607
2024-04-10,0.008858994595266467
2024-04-11,0.006715233641391689
2024-04-12,-0.0003001351797771211
2024-04-15,-0.0049286421128150164
2024-04-16,-0.0126322464738052
2024-04-17,-0.019518994233508905
2024-04-18,-0.020187322782214346
2024-04-19,-0.02295621552365325
2024-04-22,-0.015295452160077633
2024-04-23,-0.004366841285411427
2024-04-24,-0.021700518293283746
2024-04-25,-0.017138300600406102
2024-04-26,-0.012200557423844745
2024-04-29,-0.008719617353181388
2024-04-30,-0.011704066222096476
2024-05-06,-0.0018989695008863388
2024-05-07,-0.005413998533920552
2024-05-08,-0.002114960087677161
2024-05-09,-0.0015906695416583972
2024-05-10,-0.0004135916835724851
2024-05-13,0.006990789364493875
2024-05-14,0.011903987900755308
2024-05-15,0.0054631105817282265
2024-05-16,0.0036878771833100577
2024-05-17,0.004562782187444055
2024-05-20,0.0010276216399669746
2024-05-21,0.0014888212328033577
2024-05-22,0.0042720334693641185
2024-05-23,0.002167677822804359
2024-05-24,0.0031705035135733074
2024-05-27,-0.0018875345634132255
2024-05-28,-0.005988555063259094
2024-05-29,-0.009630786171632858
2024-05-30,-0.0013221199722655175
2024-05-31,0.0023617284516848002
2024-06-03,0.0007746588420817768
2024-06-04,0.00694074404181556
2024-06-05,0.008506836102130759
2024-06-06,0.008102053187872731
2024-06-07,-0.0008382219807439122
2024-06-11,0.0054699484909817055
2024-06-12,0.0036042913054563303
2024-06-13,0.008640892056449257
2024-06-14,0.007136686899702399
2024-06-17,0.00649208388160543
2024-06-18,0.0027508369191231695
2024-06-19,0.0006034668758213325
2024-06-20,6.56327643531393e-05
2024-06-21,0.0050046539772807385
2024-06-24,0.012640688699872827
2024-06-25,0.01578181045952739
2024-06-26,0.013116547319580419
2024-06-27,0.00998798313330179
2024-06-28,0.001042621527780392
2024-07-01,0.001770538168035747
2024-07-02,0.004059867007372288
2024-07-03,0.007759362924318372
2024-07-04,0.0032761340079779377
2024-07-05,-0.004549119995768789
2024-07-08,-0.008850207794909418
2024-07-09,-0.010805698462115048
2024-07-10,-0.018072848416353142
2024-07-11,-0.014660580388684145
2024-07-12,-0.009096734292658197
2024-07-15,-0.018717592202708216
2024-07-16,-0.014463465549289503
2024-07-17,-0.0030854122021174435
2024-07-18,-0.004651493618343411
2024-07-19,-0.0004980193949315412
2024-07-22,0.009708688463198778
2024-07-23,0.006960350418469876
2024-07-24,-0.002007870061656111
2024-07-25,0.010514941639606158
2024-07-26,0.004440843949627051
2024-07-29,-0.017661820056199158
2024-07-30,-0.02146485708317289
2024-07-31,-0.010221695544175676
2024-08-01,-0.019501172783545233
2024-08-02,-0.011436030620126025
2024-08-05,0.009421191521991354
2024-08-06,0.011872708730707674
2024-08-07,0.017549842773994545
2024-08-08,0.021818872601597122
2024-08-09,0.016666879266118494
2024-08-12,0.010671987503602192
2024-08-13,0.015675167702188353
2024-08-14,0.008682878611031798
2024-08-15,0.011494280040363843
2024-08-16,0.006364454677022641
2024-08-19,0.007910752701929157
2024-08-20,0.0037818422741966
2024-08-21,0.005426976140457686
2024-08-22,-0.002856701122545323
2024-08-23,-0.008066457855665121
2024-08-26,0.0006994940202932291
2024-08-27,-0.004479036316060221
2024-08-28,-0.018111907752236738
2024-08-29,-0.011578205395275366
2024-08-30,-0.0017618194620032737
2024-09-02,-0.008870114173830407
2024-09-03,-0.005582249991198121
2024-09-04,-0.0009063304979154748
2024-09-05,0.003023286798822713
2024-09-06,0.0020369192480687165
2024-09-09,0.0031627651828359006
2024-09-10,0.0014639374188620746
2024-09-11,0.009497123458272971
2024-09-12,0.005715938312659177
2024-09-13,-0.0045450727451151265
2024-09-18,-0.005354404373495825
2024-09-19,-0.009505236802349798
2024-09-20,-0.028097036945655574
2024-09-23,-0.05935169747512098
2024-09-24,-0.08116958497886168
2024-09-25,-0.07354896643522396
2024-09-26,-0.04444632306423302
2024-09-27,-0.005557016103520683
2024-09-30,0.00896457655562916
2024-10-08,-0.0015192774569928735
2024-10-09,0.008409866014162694
2024-10-10,0.010949159163492046
2024-10-11,0.011837126749189386
2024-10-14,0.00794882638224511
2024-10-15,0.00872386862884661
2024-10-16,-0.0015845630365080715
2024-10-17,0.006006501331489791
2024-10-18,-0.005732074761998501
2024-10-21,-0.012080728180238554
2024-10-22,-0.010853390478547185
2024-10-23,-0.002794311945247218
2024-10-24,0.0008413979998001999
2024-10-25,-0.004410494673655192
2024-10-28,0.0053382472095762044
2024-10-29,0.01774770979940312
2024-10-30,0.011219833011506218
2024-10-31,0.007865850681683988
2024-11-01,0.01611785186133375
2024-11-04,0.025644019011660787
2024-11-05,0.009603422524449595
2024-11-06,0.023389986338320724
2024-11-07,0.008679221380917746
2024-11-08,-0.00451402802953263
2024-11-11,-0.028734008550787893
2024-11-12,-0.014703574049597355
2024-11-13,-0.02414329423377644
2024-11-14,-0.013492923045982591
2024-11-15,-0.0056968342718185586
2024-11-18,-0.0003268712418248738
2024-11-19,-0.016261298543706185
2024-11-20,-0.00569786914857718
2024-11-21,-0.012329171968617297
2024-11-22,0.004671010691238741
2024-11-25,0.011359761926452456
2024-11-26,0.009786712991840255
2024-11-27,-0.0035352006319924936
2024-11-28,0.00616822103245627
2024-11-29,-0.002850142954995116
2024-12-02,-0.009583161301325555
2024-12-03,-0.00028259168097081837
2024-12-04,0.006413326447360456
2024-12-05,-0.005676234835528791
2024-12-06,-0.004513537987454648
2024-12-09,-0.0004727034413551309
2024-12-10,-0.004200760672238742
2024-12-11,-0.0035862885814147184
2024-12-12,0.0074192290605785485
2024-12-13,0.015026939606672897
2024-12-16,0.005335306296544473
2024-12-17,0.009288348836250375
2024-12-18,0.003071758294590777
2024-12-19,0.0046153553396217
2024-12-20,-0.005232819523928678
2024-12-23,0.002040121490224695
2024-12-24,-0.004964612242395161
2024-12-25,-0.007591769056044841
2024-12-26,-0.022641445829487843
2024-12-27,-0.018679413935695423
2024-12-30,-0.004373559042429358
2024-12-31,0.004098420754734371
2025-01-02,0.004638559098611046
2025-01-03,0.010331805111433421
2025-01-06,0.013646151619482665
2025-01-07,0.0038261821321897843
2025-01-08,0.0033564607369857506
2025-01-09,0.0008739259699489183
2025-01-10,0.0036098222446026805
2025-01-13,0.0016369547537585655
2025-01-14,0.009423348633658575
2025-01-15,0.011998106134247316
2025-01-16,0.01359122607411076
2025-01-17,0.011130782142919089
2025-01-20,-0.004065379492792204
2025-01-21,-0.013191716715514099
2025-01-22,-0.016560038755105297
2025-01-23,-0.01645060281735942
2025-01-24,-0.012657325586967264
2025-01-27,0.007560696688217249
2025-02-05,0.009572034746202135
2025-02-06,-0.004619287864533809
2025-02-07,-0.0041698591116151925
2025-02-10,-0.001316946921364701
2025-02-11,-0.003935261060481849
2025-02-12,-0.004433617275200792
2025-02-13,0.002305453651470177
2025-02-14,0.01753953825146501
2025-02-17,0.01305501858307409
2025-02-18,0.018439120350863265
2025-02-19,0.01300475576615348
2025-02-20,0.009730442363364782
2025-02-21,-0.028722298597947005
2025-02-24,-0.031294859758992294
2025-02-25,-0.027298964621762286
2025-02-26,-0.022577141314994584
2025-02-27,-0.00023255116426102026
2025-02-28,0.019743720387006117
2025-03-03,0.016786644049352532
2025-03-04,0.0030230655825566315
2025-03-05,-0.0019214397641259704
2025-03-06,-0.02824743566728277
2025-03-07,-0.015380194379145182
2025-03-10,-0.011304192436095716
2025-03-11,0.002633672460033959
2025-03-12,-0.004892303094961178
2025-03-13,0.0023956435675338093
2025-03-14,-0.015400778012953633
2025-03-17,-0.014616590677465312
2025-03-18,-0.036314656252472405
2025-03-19,-0.029042410686029002
2025-03-20,-0.024121390784724143
2025-03-21,-0.010741650843637318
2025-03-24,-0.011290693009808965
2025-03-25,-0.001624096804785263
2025-03-26,-0.002327837541944968
2025-03-27,-0.012588905918994628
2025-03-28,-0.025495912296316467
2025-03-31,-0.0495636330135114
2025-04-01,-0.036525935102534164
2025-04-02,-0.026564512708994577
2025-04-03,-0.009441928263888861
2025-04-07,0.015276597467523932
2025-04-08,0.03389819219986204
2025-04-09,0.019737052805829804
2025-04-10,0.009530651682171171
2025-04-11,-0.0029339379546322823
2025-04-14,-0.0033372418639267785
2025-04-15,0.00036528547053890116
2025-04-16,0.01198683257692805
2025-04-17,0.007291837718152828
2025-04-18,0.011464771468804513
2025-04-21,0.004693171340983456
2025-04-22,0.00750104644874563
2025-04-23,0.006020903098378445
2025-04-24,0.016410855008754194
2025-04-25,0.007073797089448029
2025-04-28,0.00815865835845708
2025-04-29,0.0006469084288250188
2025-04-30,-0.006534818332217706
2025-05-06,-0.013915820540888413
2025-05-07,-0.006900138516993599
2025-05-08,-0.01320666116372372
2025-05-09,-0.004652040815087018
2025-05-12,-0.005327792125935702
2025-05-13,0.001863754360362908
2025-05-14,-0.0005592529515834522
2025-05-15,0.005760189214237483
2025-05-16,4.073648486191677e-05
2025-05-19,0.0015358458934090478
2025-05-20,-0.0009733166521832381
2025-05-21,0.0003121014229358031
2025-05-22,0.007690492059627463
2025-05-23,0.0018441192078164075
2025-05-26,0.0059336885536395295
2025-05-27,0.008441031049001077
2025-05-28,0.01460531024520873
2025-05-29,0.007647098624040948
2025-05-30,0.017312587653963943
2025-06-03,0.012378983718325179
2025-06-04,0.0073997591324299564
2025-06-05,0.006331178947114539
2025-06-06,0.0029866280678535403
2025-06-09,0.0035251019472240146
2025-06-10,-0.0016962220728091394
2025-06-11,0.0004070421053876854
2025-06-12,-0.007923729675827494
2025-06-13,-0.005203068553641499
2025-06-16,-0.0038164338416801415
2025-06-17,0.004839423421641821
2025-06-18,0.008724973736375468
2025-06-19,0.007381749493370931
2025-06-20,0.009892499369614158
2025-06-23,0.005962179661075432
2025-06-24,0.004750663591137528
2025-06-25,-0.008752743542424876
2025-06-26,-0.002700230194484796
2025-06-27,-0.0015268062154173145
2025-06-30,-0.005696658207504697
2025-07-01,-0.005910866246856911
2025-07-02,0.0010814786242676778
2025-07-03,-0.0033910454749094977
2025-07-04,0.0018382836393898237
2025-07-07,0.0030309017348573893
2025-07-08,0.00995390404169616
2025-07-09,0.011122745980245832
2025-07-10,0.019353962204968198
2025-07-11,0.011550749717695239
2025-07-14,0.006101152054099401
2025-07-15,-0.010444955298305848
2025-07-16,-0.00503094984119733
2025-07-17,-0.011424961017610778
2025-07-18,-0.00526886991415727
2025-07-21,0.00530058190496157
2025-07-22,0.01685552882654597
2025-07-23,0.006606660847521368
2025-07-24,0.012478026772189003
2025-07-25,0.007152276251903662
2025-07-28,0.005174596303637877
2025-07-29,0.0016184366592131988
2025-07-30,0.008202442340039605
2025-07-31,0.0034329553031653744
2025-08-01,0.0015952917368773963
2025-08-04,-0.0017654882898804278
2025-08-05,-0.0011428331885070305
2025-08-06,0.0022030761747935425
2025-08-07,0.005321582561969041
2025-08-08,0.013396505862530453
2025-08-11,0.024667736410722816
2025-08-12,0.018885081343980807
2025-08-13,0.010859778936756402
2025-08-14,0.00885244573884306
2025-08-15,0.018381646343561393
2025-08-18,0.01639767608989652
2025-08-19,0.01404884872407558
2025-08-20,0.01999021474245013
2025-08-21,0.04796518342944505
2025-08-22,0.025753002288529753
2025-08-25,0.0286582397089666
2025-08-26,0.01894785394580019
2025-08-27,0.01203933727447594
2025-08-28,-0.041045378924818514
2025-08-29,-0.021394016532999466
2025-09-01,-0.038155075468497876
2025-09-02,-0.02692366868778058
2025-09-03,-0.023186273043496547
2025-09-04,0.03851729079872733
2025-09-05,0.016775224223623604
2025-09-08,0.02537999398473772
2025-09-09,0.04146840834974206
2025-09-10,0.035689019438289796
2025-09-11,0.017124378257127672
2025-09-12,0.005357179554532135
2025-09-15,0.028695467638289285
2025-09-16,0.020981751081020725
2025-09-17,0.03017101066903404
2025-09-18,0.033816691032102913
2025-09-19,0.02850082624869854
2025-09-22,0.015945707432789787
2025-09-23,0.02469823522042429
2025-09-24,0.02136326761090556
2025-09-25,-0.019454073970793333
2025-09-26,0.0013918099917671328
2025-09-29,-0.03731537106912876
2025-09-30,-0.037090640666567476
2025-10-09,-0.04940262375092058
2025-10-10,-0.029831369581231594
2025-10-13,-0.039416566958207666
2025-10-14,0.0047575527178612305
2025-10-15,-0.006360460408672995
2025-10-16,-0.009828889339585757
2025-10-17,0.031025224292634955
2025-10-20,0.03948248875556912
2025-10-21,0.022222177980353718
2025-10-22,0.03734496912224758
2025-10-23,0.0376436431103877
2025-10-24,-0.0039005508963554686
2025-10-27,-0.017943348898658337
2025-10-28,-0.025021441641558943
2025-10-29,-0.035978264284436325
2025-10-30,-0.017620080986701588
2025-10-31,-0.009043201705913415
2025-11-03,-0.01740031561823147
2025-11-04,-0.016191083172517252
2025-11-05,-0.01969784253403903
2025-11-06,-0.023678481560056152
2025-11-07,-0.02826473353822597
2025-11-10,-0.012885760061516174
2025-11-11,-0.002862362391176883
2025-11-12,0.0016319525490619165
2025-11-13,-0.007499177797280231
2025-11-14,-0.012048434032626704
2025-11-17,-0.015057153874992592
2025-11-18,-0.005753320321897435
2025-11-19,0.002528308068124952
2025-11-20,0.004324961609937792
2025-11-21,0.026127041034389783
2025-11-24,0.03126949545329491
2025-11-25,0.01582086460993598
2025-11-26,0.0035098932058325464
2025-11-27,0.011554899711220505
2025-11-28,0.008723851771401702
2025-12-01,0.01784953769880051
2025-12-02,0.027261950119725358
2025-12-03,0.027814607354849422
2025-12-04,0.01556208452076756
2025-12-05,0.01974326350755444
2025-12-08,-0.003995665189136292
2025-12-09,-0.016698105248056892
2025-12-10,-0.0021302730739048512
2025-12-11,-0.006237339764562087
2025-12-12,-0.012862043926232102
2025-12-15,0.010194666582715116
2025-12-16,0.02262591611236752
2025-12-17,0.015311805232930284
2025-12-18,0.02422870052986422
2025-12-19,0.026811167097958846
2025-12-22,0.013034472946526739
2025-12-23,0.013549439195256271
2025-12-24,0.005847997669957382
2025-12-25,0.017343957715611653
2025-12-26,0.02122106151772243
2025-12-29,0.02893294728442306
2025-12-30,0.02418764051023221
2025-12-31,0.029676830072996215
2026-01-05,0.03172927175068939
2026-01-06,0.00933903038735298
2026-01-07,0.009917840027127065
2026-01-08,0.013954108692994271
2026-01-09,0.019105802031378304
2026-01-12,-0.0014804540679310887
2026-01-13,0.003204823735849226
2026-01-14,0.009949059416703581
2026-01-15,0.008541938202192241
2026-01-16,0.011031785704186796
2026-01-19,0.004018192457145857
2026-01-20,0.030176006691636226
2026-01-21,0.015537747098923657
2026-01-22,-0.00030744011363629566
2026-01-23,-0.013601465517056145
2026-01-26,-0.02135565360939329
2026-01-27,-0.017957454460170812
2026-01-28,-0.03546627365909392
2026-01-29,-0.03475090498752907
2026-01-30,-0.032843595739332536
2026-02-02,-0.0007649518056134161
2026-02-03,-0.01661839380114524
2026-02-04,-0.006408598880585858
2026-02-05,0.026094672748193055
2026-02-06,0.026936175468256426
2026-02-09,0.02044687923608354
2026-02-10,0.025710425540331493
2026-02-11,0.040668249463626155
2026-02-12,0.026771319769221497
2026-02-13,0.039205162875259825
2026-02-24,0.007805973740475187
2026-02-25,0.0069700909146414025
2026-02-26,0.0005642956741692684
2026-02-27,-0.012700049471487111
2026-03-02,-0.022915482110568333
2026-03-03,-0.0029440627582172476
2026-03-04,-0.012241789817982287
2026-03-05,-0.019321566567999222
2026-03-06,-0.015355264516498454
2026-03-09,-0.020220001791656783
2026-03-10,-0.03800206417270864
2026-03-11,-0.020617657520675105
2026-03-12,-0.020310483474133553
2026-03-13,-0.012085368413151797
2026-03-16,-0.008531899031902018
2026-03-17,0.00838273749781579
2026-03-18,0.002610725161584969
2026-03-19,0.002466606161426462
2026-03-20,0.00013062717800597055
2026-03-23,0.004552044336758529
2026-03-24,-0.007847247916765342
2026-03-25,-0.010668275961126898
2026-03-26,-0.015526666150879755
2026-03-27,-0.005266424593561541
2026-03-30,-0.005417913319147531
2026-03-31,0.025108911468375968
2026-04-01,0.0232066820569172
2026-04-02,0.04234907061936054
2026-04-03,0.041883707883831195
2026-04-07,0.0444801587420833
2026-04-08,0.017893358958267935
2026-04-09,0.02500690798973061
2026-04-10,0.027384075766080145
2026-04-13,0.02482051048395242
2026-04-14,0.011615136387011749
2026-04-15,0.037237708123614655
2026-04-16,0.019468785068262
2026-04-17,0.006639727571555012
2026-04-20,0.016596527928623643
2026-04-21,0.009116155764047227
2026-04-22,-0.004085067349017988
2026-04-23,0.016566212469844112
2026-04-24,0.043193653032753625
2026-04-27,0.03928007150163845
2026-04-28,0.04876716807147259
2026-04-29,0.06434302629449598
2026-04-30,0.05492674361983612
2026-05-06,0.05195938647148671
2026-05-07,0.028755349935180106
2026-05-08,0.031102240689878623
2026-05-11,0.020287231555224702
2026-05-12,0.019697492294960626
2026-05-13,0.013851390971278197
2026-05-14,0.010553547937742144
2026-05-15,0.03709866848219534
2026-05-18,0.05239265786920991
2026-05-19,0.042724329751128276
2026-05-20,0.02203136624459296
2026-05-21,0.05308518791379867
2026-05-22,-0.004866136654985021
2026-05-25,-0.057013797410120075
2026-05-26,-0.03463889269782083
2026-05-27,-0.006760080036111163
2026-05-28,-0.012544941258240815
2026-05-29,0.002586486897542664
2026-06-01,0.010452562164216351
2026-06-02,0.025625330334205002
2026-06-03,-0.011396463245731916
2026-06-04,-0.020569359590303895
2026-06-05,-0.009387413875473751
2026-06-08,0.05283423938727726
2026-06-09,0.04131005059747433
2026-06-10,0.08640079480993877
2026-06-11,0.11590195641503322
2026-06-12,0.13309858229883745
2026-06-15,0.07361329919690766
2026-06-16,0.07269260064524864
2026-06-17,0.07243614018801409
