date,long_short
2015-03-05,0.0033623734668940114
2015-03-06,0.045910101047764704
2015-03-09,0.049980159462600635
2015-03-10,0.04781751562492685
2015-03-11,0.03539024816963001
2015-03-12,0.0196953360837148
2015-03-13,0.02352517695647055
2015-03-16,0.007781020471758701
2015-03-17,0.0078028837717668
2015-03-18,0.023327924839856122
2015-03-19,0.026354543944097177
2015-03-20,-0.013503889462222904
2015-03-23,-0.042728983197257514
2015-03-24,-0.03885194735917126
2015-03-25,-0.023099912366402298
2015-03-26,-0.013168843074718717
2015-03-27,0.0058173649872890615
2015-03-30,0.020691854420471424
2015-03-31,0.017907445266985275
2015-04-01,0.004156303853796631
2015-04-02,0.02261597622035702
2015-04-03,0.01612316125865733
2015-04-07,0.010089607977080042
2015-04-08,-0.004122609954929836
2015-04-09,-0.003081303719500647
2015-04-10,-0.007712334975272669
2015-04-13,-0.00832120351590794
2015-04-14,-0.010873055460567396
2015-04-15,-0.015749478077060633
2015-04-16,-0.005035647829985612
2015-04-17,-0.0007413788339264982
2015-04-20,0.006934358902658436
2015-04-21,0.013448623424943386
2015-04-22,0.0019290957273219063
2015-04-23,0.002134233658768782
2015-04-24,0.023916275822691978
2015-04-27,0.014021681583382729
2015-04-28,0.012358182053649015
2015-04-29,0.01191984460548191
2015-04-30,0.008144784774587643
2015-05-04,0.005821091319742788
2015-05-05,0.01817054842621815
2015-05-06,0.015648551562241507
2015-05-07,0.038681459747499675
2015-05-08,0.034855067502844575
2015-05-11,0.02158837951629935
2015-05-12,0.0367925851496432
2015-05-13,0.03076398071642291
2015-05-14,0.016224497571059482
2015-05-15,0.025167893666563624
2015-05-18,0.04561375746143334
2015-05-19,0.06538963082451744
2015-05-20,0.051929593787768596
2015-05-21,0.030855327686401424
2015-05-22,0.044859242506531394
2015-05-25,0.059320084421024905
2015-05-26,0.015449959963846207
2015-05-27,0.026468849456208365
2015-05-28,0.04094627596174601
2015-05-29,0.056911506060139165
2015-06-01,0.026357418126756585
2015-06-02,-0.0314160862974401
2015-06-03,-0.01959448682980456
2015-06-04,-0.021927972449777657
2015-06-05,-0.04528695961896519
2015-06-08,-0.04298398017495343
2015-06-09,-0.046521122828936584
2015-06-10,-0.06457463863758273
2015-06-11,-0.09224085125886365
2015-06-12,-0.11630094423625977
2015-06-15,-0.08536395421802413
2015-06-16,-0.07501384824885836
2015-06-17,-0.10524310123049829
2015-06-18,-0.09971343291931058
2015-06-19,-0.06844895037423872
2015-06-23,-0.07599776106054093
2015-06-24,-0.06816572105693694
2015-06-25,-0.044911244888101554
2015-06-26,0.016388540187891418
2015-06-29,0.04436285945009989
2015-06-30,0.009324778658713423
2015-07-01,-0.005172370742291411
2015-07-02,0.022823486388983454
2015-07-03,0.04659745905473464
2015-07-06,0.02332451838496835
2015-07-07,0.055507209248637675
2015-07-08,0.07475903026403147
2015-07-09,0.057039715503965006
2015-07-10,0.024349946771824404
2015-07-13,-0.029282925961810806
2015-07-14,-0.034154767008132206
2015-07-15,0.008054738259658512
2015-07-16,-0.00959556036775484
2015-07-17,-0.026849286701617237
2015-07-20,-0.03656906943428301
2015-07-21,-0.017387707719627422
2015-07-22,-0.024802069771698708
2015-07-23,-0.03018942344343805
2015-07-24,-0.020477132212619265
2015-07-27,0.019947422286110864
2015-07-28,-0.017214224426016965
2015-07-29,-0.023523860713696644
2015-07-30,-0.008829079280094958
2015-07-31,-0.00211068913850547
2015-08-03,0.005520472923448892
2015-08-04,-0.020879187068830258
2015-08-05,-0.01063788878700973
2015-08-06,-0.012180090601997054
2015-08-07,-0.024404947158122907
2015-08-10,-0.047297526316452634
2015-08-11,-0.060063880935625646
2015-08-12,-0.04596118218732895
2015-08-13,-0.03185592338225268
2015-08-14,-0.03939271676620271
2015-08-17,-0.027170400167107353
2015-08-18,-0.042482698809234415
2015-08-19,-0.04129689688060294
2015-08-20,-0.040960107683801816
2015-08-21,-0.01481226052874883
2015-08-24,-0.0020431848954539263
2015-08-25,0.027065654087064225
2015-08-26,0.03541565928865408
2015-08-27,-0.006339049347517349
2015-08-28,-0.010387543063292454
2015-08-31,-0.012586477188694434
2015-09-01,-0.00741557328859717
2015-09-02,-0.0014577682414505973
2015-09-07,-0.004620856151835837
2015-09-08,0.0004127544765574094
2015-09-09,-0.0009236182594873008
2015-09-10,-0.0003335155966254777
2015-09-11,-0.007851331159639478
2015-09-14,0.02086473068173731
2015-09-15,0.037845627016865814
2015-09-16,0.020609621254052114
2015-09-17,0.01724552374245424
2015-09-18,0.01935360236562177
2015-09-21,0.014479636830129608
2015-09-22,0.01685076626596366
2015-09-23,0.013135961531501247
2015-09-24,0.00744333839989663
2015-09-25,0.016355969609200688
2015-09-28,0.010477682590373238
2015-09-29,0.017894192568693748
2015-09-30,-0.003384089958697614
2015-10-08,0.011030860364922589
2015-10-09,0.00880548366573771
2015-10-12,0.003191255106172762
2015-10-13,0.0033232999163774896
2015-10-14,-0.0014164429835601781
2015-10-15,0.0023107982613771953
2015-10-16,0.002964182652251684
2015-10-19,-0.0028823041119173764
2015-10-20,-0.014117098800183345
2015-10-21,0.01647307460664399
2015-10-22,0.0116721506686659
2015-10-23,0.0260906622812063
2015-10-26,0.032579971265926475
2015-10-27,0.02574279980318523
2015-10-28,0.04880384818815215
2015-10-29,0.052443135681502634
2015-10-30,0.04483266438916708
2015-11-02,0.06261096595147858
2015-11-03,0.05386347869728189
2015-11-04,0.02465511798696205
2015-11-05,0.03762558569302971
2015-11-06,0.021133051773388242
2015-11-09,0.007192645908160155
2015-11-10,0.012053213100476204
2015-11-11,0.011474019885846488
2015-11-12,0.0110049893197657
2015-11-13,-0.012683432079113762
2015-11-16,-0.029930515501921807
2015-11-17,-0.020548604927706916
2015-11-18,-0.01913970661419163
2015-11-19,-0.007553942831148955
2015-11-20,-0.008536055980994333
2015-11-23,-0.005564858834388259
2015-11-24,-0.013268750805630645
2015-11-25,-0.017490235080248457
2015-11-26,-0.007337418418168269
2015-11-27,0.00427352273630264
2015-11-30,0.028345934658365577
2015-12-01,0.03303210386621283
2015-12-02,0.023957110910835362
2015-12-03,0.017002714418845277
2015-12-04,0.024680357594630983
2015-12-07,0.04214713533852265
2015-12-08,0.03489489989010261
2015-12-09,0.04072195069984998
2015-12-10,0.025358136328491144
2015-12-11,0.04107215058755639
2015-12-14,0.012663869374333996
2015-12-15,0.007535506156195072
2015-12-16,0.004374559381536618
2015-12-17,0.0032452644657745963
2015-12-18,-0.030894483244817486
2015-12-21,-0.024327593380990407
2015-12-22,-0.026945575636624964
2015-12-23,-0.032807935426002265
2015-12-24,-0.02708387766160819
2015-12-25,-0.028809113876252
2015-12-28,0.012720855128565148
2015-12-29,-0.01355530440718239
2015-12-30,-0.0049376569158198075
2015-12-31,-0.017593760724161314
2016-01-04,0.003488036191179905
2016-01-05,-0.011852953949567618
2016-01-06,-0.0076814000813553995
2016-01-07,0.019028550761465535
2016-01-08,0.010152309695773437
2016-01-11,0.017902906930402737
2016-01-12,-0.022357810578695743
2016-01-13,-0.015316987836840698
2016-01-14,-0.026174468054425123
2016-01-15,-0.026377721253554903
2016-01-18,-0.03254286902928406
2016-01-19,-0.03104311672827742
2016-01-20,-0.0187609184957375
2016-01-21,-0.04625801091170101
2016-01-22,-0.03772005186284469
2016-01-25,-0.02936289635890423
2016-01-26,-0.007550151891694502
2016-01-27,0.007025431737598287
2016-01-28,0.014522298281266298
2016-01-29,0.01793047216302561
2016-02-01,0.029879330948546064
2016-02-02,0.017561670174194223
2016-02-03,0.004169803846142885
2016-02-04,4.2836067834425585e-05
2016-02-05,-0.012392797934068103
2016-02-15,-0.030618926172907013
2016-02-16,-0.019006604236145787
2016-02-17,-0.02625053268178052
2016-02-18,-0.014673644520417306
2016-02-19,-0.023007016496432862
2016-02-22,-0.025270351472844406
2016-02-23,-0.026189345415590398
2016-02-24,-0.02286906583597273
2016-02-25,-0.016067019507347013
2016-02-26,-0.019266218511905017
2016-02-29,-0.0017067423269712528
2016-03-01,-0.013127292769849076
2016-03-02,-0.003338675226377107
2016-03-03,-0.013127279834180536
2016-03-04,0.003020652195800815
2016-03-07,0.007002338498641444
2016-03-08,0.019172341349847133
2016-03-09,0.005092676759605848
2016-03-10,0.025125258034116846
2016-03-11,0.014017167498120417
2016-03-14,0.02447356922690353
2016-03-15,0.01680115080589859
2016-03-16,0.020432452663479834
2016-03-17,0.017153640617821653
2016-03-18,0.006891263184427646
2016-03-21,0.0035456896471177265
2016-03-22,0.007806212963065798
2016-03-23,0.0027450820196989628
2016-03-24,-0.00532908882398568
2016-03-25,-0.0036873866783382232
2016-03-28,0.0001241749008966571
2016-03-29,-0.000898692753487848
2016-03-30,-0.018053597109869784
2016-03-31,-0.01439590148464841
2016-04-01,-0.005956548588043146
2016-04-05,-0.020876241871812008
2016-04-06,-0.02677156673349999
2016-04-07,-0.024482045025996046
2016-04-08,-0.027447742878684026
2016-04-11,-0.031642830866036045
2016-04-12,-0.017545146289159007
2016-04-13,-0.015958018089356596
2016-04-14,-0.015557039204545969
2016-04-15,-0.007154626402876327
2016-04-18,-0.0011876644092672587
2016-04-19,0.007276261308909118
2016-04-20,0.01881789265530768
2016-04-21,0.027162762266473184
2016-04-22,0.01475426949416515
2016-04-25,0.008870100488187004
2016-04-26,0.005128239846897687
2016-04-27,0.014575247150234092
2016-04-28,0.020393027405500773
2016-04-29,0.012405364234776206
2016-05-03,-0.002965156057926424
2016-05-04,0.0038757552984162932
2016-05-05,-0.008306666578044193
2016-05-06,-0.005660150196378928
2016-05-09,0.0037092214369709707
2016-05-10,-0.0010716408364108941
2016-05-11,-0.012644277253420225
2016-05-12,-0.019582179763441
2016-05-13,-0.020832770800643094
2016-05-16,-0.01458192426653995
2016-05-17,-0.01972475892230786
2016-05-18,-0.02588674696586547
2016-05-19,-0.016126154312343193
2016-05-20,-0.008075111860159224
2016-05-23,-0.009012970676319572
2016-05-24,-0.011214133023685503
2016-05-25,0.002576637944175335
2016-05-26,0.017701474705652573
2016-05-27,0.004396964281365363
2016-05-30,0.010347597561622856
2016-05-31,0.01609319396938694
2016-06-01,0.018924289597250128
2016-06-02,-0.0004192033211238037
2016-06-03,0.0046399579007592485
2016-06-06,0.0009806696177397604
2016-06-07,0.003212856902344215
2016-06-08,0.016253410997127928
2016-06-13,0.011402534664887908
2016-06-14,0.015185363399602716
2016-06-15,-0.001269234126162493
2016-06-16,-0.006667330698352422
2016-06-17,-0.0005779037436368234
2016-06-20,0.011747976668658105
2016-06-21,0.009020049840790773
2016-06-22,0.01102573233808233
2016-06-23,0.013597115099514882
2016-06-24,0.0011960897425151926
2016-06-27,-0.01997888205836489
2016-06-28,-0.026198157794329595
2016-06-29,-0.01848915101225252
2016-06-30,-0.018420449063115487
2016-07-01,-0.015697054928106045
2016-07-04,-0.02124237625346738
2016-07-05,-0.014230872693694437
2016-07-06,-0.013152645564979703
2016-07-07,-0.02269934307727567
2016-07-08,-0.02339961775068412
2016-07-11,-0.017471190890317456
2016-07-12,-0.009135932374127697
2016-07-13,-0.009931019977531277
2016-07-14,-0.011002926238139938
2016-07-15,-0.003459574857889813
2016-07-18,-0.006215773020192938
2016-07-19,-0.01149070270491409
2016-07-20,-0.0032104424966693627
2016-07-21,0.0006056549818335803
2016-07-22,-0.005176640386267451
2016-07-25,-0.008419932344332505
2016-07-26,-0.009948817475756705
2016-07-27,-0.00619993745758618
2016-07-28,-0.013829434212998521
2016-07-29,-0.016879905652733288
2016-08-01,-0.008412589811730611
2016-08-02,-0.009594953135379773
2016-08-03,-0.010160803629705686
2016-08-04,-0.014961649831993398
2016-08-05,-0.005525414744141567
2016-08-08,-0.010430097935547056
2016-08-09,-0.013763927405925544
2016-08-10,-0.010364675208936691
2016-08-11,-0.007169953607007508
2016-08-12,0.0016221572948320606
2016-08-15,-0.0013012105849506198
2016-08-16,0.0008884434081084195
2016-08-17,0.013000449895956011
2016-08-18,0.004415662981596974
2016-08-19,-0.0011308872166357533
2016-08-22,-0.004094237563631296
2016-08-23,-0.003180931402788123
2016-08-24,-0.001893689672416897
2016-08-25,-0.003299421734935429
2016-08-26,-0.010591319408753122
2016-08-29,-0.0012518210118092582
2016-08-30,-0.009346167008070198
2016-08-31,-0.007085238015953338
2016-09-01,-0.017760484586773182
2016-09-02,-0.0081249866652536
2016-09-05,-0.01797386789304562
2016-09-06,-0.01068453368462447
2016-09-07,-0.010645306945599991
2016-09-08,-0.002939419863762612
2016-09-09,0.0012427032166705057
2016-09-12,0.0018887053731993552
2016-09-13,0.006562804962448725
2016-09-14,-0.004213531038587772
2016-09-19,-0.018406366802537648
2016-09-20,-0.015773966294566864
2016-09-21,-0.01033653589692856
2016-09-22,-0.005534050237703208
2016-09-23,-0.005359577463424323
2016-09-26,-0.010030100769264331
2016-09-27,0.005547443060365427
2016-09-28,-0.01080616175452747
2016-09-29,-0.010007579269971988
2016-09-30,-0.013827728746335737
2016-10-10,-0.005614980085461099
2016-10-11,-0.004263818635230367
2016-10-12,-0.003980129311412662
2016-10-13,-0.007896229233203177
2016-10-14,-0.00967051543878487
2016-10-17,-0.0038338704129109724
2016-10-18,-0.015066989099073119
2016-10-19,-0.003988273237265293
2016-10-20,-0.0057004508180448525
2016-10-21,-0.007832336163605402
2016-10-24,-2.028184990898827e-05
2016-10-25,-0.001292327886646198
2016-10-26,0.010136019549469041
2016-10-27,0.006399806694615352
2016-10-28,0.006417194039422921
2016-10-31,0.0009929770122148497
2016-11-01,-0.0030606323817707268
2016-11-02,-0.005773285448691729
2016-11-03,-0.009868652331668127
2016-11-04,-0.008386387994471818
2016-11-07,-0.0065539054192886755
2016-11-08,-0.004054788806054456
2016-11-09,-0.012309027204355363
2016-11-10,-0.0035021316526239084
2016-11-11,-0.008623884765937204
2016-11-14,-0.010867297083679789
2016-11-15,-0.008603336260656597
2016-11-16,0.0025628414997124014
2016-11-17,-0.009398381352862436
2016-11-18,-1.8975814518502193e-05
2016-11-21,0.0034588217210721937
2016-11-22,0.0005920306973409666
2016-11-23,-0.0031407811220625363
2016-11-24,-0.007537293638756429
2016-11-25,-0.00726849195692239
2016-11-28,0.018367782982234137
2016-11-29,0.020431414025257198
2016-11-30,0.019488364092269405
2016-12-01,0.009738809284189638
2016-12-02,0.0040268391408882775
2016-12-05,-0.027919175093331746
2016-12-06,0.0035261407117977046
2016-12-07,0.0030925029872394434
2016-12-08,0.005265051066265233
2016-12-09,-9.021036656577108e-05
2016-12-12,-0.010806604297470332
2016-12-13,-0.012706001876788595
2016-12-14,-0.01638609786538081
2016-12-15,-0.0027600572925146625
2016-12-16,-0.019436134605947824
2016-12-19,-0.024771115543584507
2016-12-20,-0.031824636412779495
2016-12-21,-0.032630013424187164
2016-12-22,-0.031491720390182366
2016-12-23,-0.025111919580232393
2016-12-26,-0.026910396906822485
2016-12-27,-0.02362161367197496
2016-12-28,-0.016993559796783894
2016-12-29,-0.017203401719008058
2016-12-30,-0.0034275220878035636
2017-01-03,0.010222305358381444
2017-01-04,-0.0001432823642280312
2017-01-05,0.012852473763628462
2017-01-06,-0.002198007624282622
2017-01-09,0.0018123140995059649
2017-01-10,0.016333641491845886
2017-01-11,0.013962612013290077
2017-01-12,0.01296390000998462
2017-01-13,0.0029110220037398046
2017-01-16,0.004320309843562818
2017-01-17,0.0021713807794721297
2017-01-18,-0.00041289606709604687
2017-01-19,-0.0014350550901178205
2017-01-20,-0.007160047870051365
2017-01-23,-0.005209750416870877
2017-01-24,-0.004567778347084599
2017-01-25,-0.013221395973153005
2017-01-26,-0.012703724839039879
2017-02-03,-0.009022672037615228
2017-02-06,-0.015472764876679266
2017-02-07,-0.0037620281895727366
2017-02-08,-0.0031074160014134752
2017-02-09,-2.1472390654291712e-05
2017-02-10,0.006724117583792821
2017-02-13,0.009674056669272669
2017-02-14,0.0040612313671592095
2017-02-15,0.001767868484858012
2017-02-16,-0.0050075303096689975
2017-02-17,-0.009125170425212537
2017-02-20,-0.0242080315745066
2017-02-21,-0.013241835706640632
2017-02-22,-0.016776471028564922
2017-02-23,-0.014187992067319992
2017-02-24,-0.01501875884997426
2017-02-27,-0.024368900415711714
2017-02-28,-0.015222456141036244
2017-03-01,-0.006869963753456162
2017-03-02,-0.007318988283257059
2017-03-03,0.0034663151862042996
2017-03-06,0.0034334829351927074
2017-03-07,0.004043081477346018
2017-03-08,0.0050468932758520445
2017-03-09,0.006151256565826237
2017-03-10,0.003491845936852875
2017-03-13,0.0012644533312193074
2017-03-14,0.0023072106853364634
2017-03-15,0.004615294215602743
2017-03-16,0.012916245949374803
2017-03-17,0.015532478764128868
2017-03-20,0.00020582992001102075
2017-03-21,0.00012676274108509335
2017-03-22,-0.0009546557757546276
2017-03-23,0.0023638441524503045
2017-03-24,0.00637797595110696
2017-03-27,0.0066668569161455575
2017-03-28,-0.0003527945147555429
2017-03-29,-0.0014469414521449397
2017-03-30,-0.005546108254309687
2017-03-31,-0.002764629561219349
2017-04-05,0.017377536089017293
2017-04-06,0.01993994894506465
2017-04-07,0.02258870995578599
2017-04-10,0.016468947190237396
2017-04-11,0.016467225153318634
2017-04-12,0.017980092737778314
2017-04-13,0.01673346357270371
2017-04-14,0.011167390693131591
2017-04-17,0.009108753993087465
2017-04-18,0.0008756367361097781
2017-04-19,-0.019460755320016433
2017-04-20,-0.0014984836792574403
2017-04-21,-0.007869278523260156
2017-04-24,-0.017879988967757273
2017-04-25,0.005226053536816823
2017-04-26,-4.225618073647533e-05
2017-04-27,0.003022207761525784
2017-04-28,0.004958748331148801
2017-05-02,0.00532753570982836
2017-05-03,0.0028374162108706267
2017-05-04,0.016834368309366993
2017-05-05,-0.006085194534559652
2017-05-08,0.001555443354230356
2017-05-09,0.022611086590598677
2017-05-10,-0.004199368764867631
2017-05-11,-0.013040200845688752
2017-05-12,-0.0030334357225171114
2017-05-15,-0.012368965721030873
2017-05-16,-0.0002904798731051595
2017-05-17,-0.007945563121734826
2017-05-18,-0.00584537885185792
2017-05-19,-0.0015536178981181877
2017-05-22,-0.003827480053402832
2017-05-23,-0.013822043390382587
2017-05-24,-0.004673294108985496
2017-05-25,0.00557957545162378
2017-05-26,0.0107898083115423
2017-05-31,0.007156204188548036
2017-06-01,-0.003866319252725847
2017-06-02,0.005151616971818788
2017-06-05,0.006953549563248996
2017-06-06,0.005541422920528869
2017-06-07,0.0055841961445504025
2017-06-08,0.0033929490050895374
2017-06-09,0.004836649799529436
2017-06-12,0.0037260407005910816
2017-06-13,0.004413260069833114
2017-06-14,0.008990584936210199
2017-06-15,0.007590102482113774
2017-06-16,0.013830867043889899
2017-06-19,0.0037833076881562504
2017-06-20,0.012776876914187968
2017-06-21,0.007182125850576917
2017-06-22,0.005037492944918169
2017-06-23,-0.002095565273442339
2017-06-26,-0.010426353577962939
2017-06-27,-0.00047914534616448927
2017-06-28,-0.0023987000104818594
2017-06-29,4.778062100219138e-05
2017-06-30,0.000983550565089076
2017-07-03,0.0198302788060578
2017-07-04,0.016169117651222253
2017-07-05,0.0094425566829446
2017-07-06,0.03290236648413876
2017-07-07,0.024587225758507317
2017-07-10,0.03641120374568315
2017-07-11,0.014494278380423786
2017-07-12,0.013644748489058056
2017-07-13,0.009204708986655624
2017-07-14,0.0032943969845815376
2017-07-17,-0.017591148098335414
2017-07-18,-0.01713672339460049
2017-07-19,-0.004576364386150694
2017-07-20,-0.007063696483999608
2017-07-21,-0.006259307867713559
2017-07-24,-0.009135531582829676
2017-07-25,0.0008600267209141685
2017-07-26,0.00025732148485278425
2017-07-27,0.013660135683060654
2017-07-28,0.007292707064127703
2017-07-31,-0.0017352312156093492
2017-08-01,0.0051352884642126475
2017-08-02,-0.003426616544155927
2017-08-03,0.0012717991824703527
2017-08-04,0.012322686285651615
2017-08-07,0.011112450757177067
2017-08-08,0.006427505326892548
2017-08-09,0.0026408119191458452
2017-08-10,-0.0029887113639315314
2017-08-11,0.0007347240438410341
2017-08-14,0.008233453908747773
2017-08-15,0.01022600861865433
2017-08-16,0.008888537611277957
2017-08-17,0.004369259326147115
2017-08-18,0.0022319651157372174
2017-08-21,0.003948928735563517
2017-08-22,0.0013986399611316258
2017-08-23,-0.00037869175688901024
2017-08-24,0.0008790754397387246
2017-08-25,-0.0060690395609035355
2017-08-28,-0.0073491575732504396
2017-08-29,-0.007214197315464171
2017-08-30,-0.007027980925849692
2017-08-31,-0.0060587575623886
2017-09-01,-0.002488116647413996
2017-09-04,-0.0006283680936860232
2017-09-05,0.001555458161298531
2017-09-06,0.0011388259050949335
2017-09-07,-0.0001122674884054993
2017-09-08,0.0010322003965192775
2017-09-11,0.004608598170420693
2017-09-12,-0.007345526309241686
2017-09-13,-0.008766800984896893
2017-09-14,0.004448405983991275
2017-09-15,0.00018222380534585686
2017-09-18,-0.006627512567006059
2017-09-19,-0.010346271803466766
2017-09-20,-0.0045934354298862515
2017-09-21,-0.017270745851843152
2017-09-22,-0.016447611548320785
2017-09-25,-0.008353774476645605
2017-09-26,-0.009101292336238046
2017-09-27,-0.0018957273681337768
2017-09-28,-0.007196844180741709
2017-09-29,-0.013951884719539932
2017-10-09,-0.005258703054666204
2017-10-10,-0.0027200268305933584
2017-10-11,-0.003922163761156907
2017-10-12,-0.0012669484938091333
2017-10-13,0.0024699594485811166
2017-10-16,0.006632951121379892
2017-10-17,0.005945397199105645
2017-10-18,0.0008445273354641741
2017-10-19,0.0021708597338598364
2017-10-20,0.0033877436247457494
2017-10-23,0.005774211558722429
2017-10-24,0.004139635665600418
2017-10-25,-0.004201571341618492
2017-10-26,0.013386295106911318
2017-10-27,0.00489965903817091
2017-10-30,0.0041822220400256
2017-10-31,0.006004004473689933
2017-11-01,0.009348927871998302
2017-11-02,0.008067698752753321
2017-11-03,0.012289468182550875
2017-11-06,0.009531577196230972
2017-11-07,0.013221908318077312
2017-11-08,0.015506091658103488
2017-11-09,0.0128124949396843
2017-11-10,-0.003850179477757386
2017-11-13,0.00048662545825752315
2017-11-14,-0.0013817720696224743
2017-11-15,-0.013452829646955582
2017-11-16,-0.00824233159828762
2017-11-17,-0.020386619023687033
2017-11-20,-0.020840777281314504
2017-11-21,-0.019459872690910766
2017-11-22,-0.013678328636694381
2017-11-23,-0.016053317158311847
2017-11-24,-0.010011897553126523
2017-11-27,-0.0019407294948904663
2017-11-28,-0.003484830439610796
2017-11-29,0.00881832501705995
2017-11-30,0.0071203451148886135
2017-12-01,0.007638633879069447
2017-12-04,0.003432903846279837
2017-12-05,0.0018855162663946518
2017-12-06,0.008343387026257787
2017-12-07,0.012862364562115518
2017-12-08,0.009469999338669688
2017-12-11,0.007311444497781085
2017-12-12,0.011227009482533702
2017-12-13,0.011263394192714878
2017-12-14,0.00927872196360552
2017-12-15,0.008034042560391376
2017-12-18,0.005833058896769869
2017-12-19,-0.000854461089214293
2017-12-20,-0.01201859814296285
2017-12-21,-0.012410559017714921
2017-12-22,-0.013985382884993429
2017-12-25,-0.017162172952576486
2017-12-26,-0.010664728496520635
2017-12-27,-0.00267614529275971
2017-12-28,-0.007692054427485117
2017-12-29,0.01415014655741658
2018-01-02,0.01443509650617953
2018-01-03,0.019853988777170917
2018-01-04,0.026479753101908608
2018-01-05,0.023315692594756052
2018-01-08,0.018968664287129657
2018-01-09,0.019625973211597394
2018-01-10,0.007555999971308017
2018-01-11,0.003482126594100538
2018-01-12,0.004161175153534379
2018-01-15,-0.01509734569555275
2018-01-16,-0.016346644820753584
2018-01-17,0.003833239719633879
2018-01-18,0.00836823158408934
2018-01-19,0.01671092714465476
2018-01-22,0.006868127765172087
2018-01-23,0.0367284010716948
2018-01-24,0.026270523797684207
2018-01-25,0.02388489392266646
2018-01-26,0.028350150398110924
2018-01-29,0.016494313427533353
2018-01-30,0.025690323397541785
2018-01-31,0.013966875397137486
2018-02-01,0.00402591962660287
2018-02-02,0.0027061902177520566
2018-02-05,-0.011206378172644003
2018-02-06,-0.03404605068611023
2018-02-07,-0.02444553463723995
2018-02-08,-0.0242516029839813
2018-02-09,-0.030993856221929343
2018-02-12,-0.024725784262180854
2018-02-13,-0.03387216090973609
2018-02-14,-0.04202913678246733
2018-02-22,-0.03229773678637762
2018-02-23,-0.04347088045011688
2018-02-26,-0.034994124539085576
2018-02-27,-0.029134431593666348
2018-02-28,-0.019330166506930903
2018-03-01,-0.012817923731352326
2018-03-02,-0.011350119509764618
2018-03-05,-0.0023868262219788154
2018-03-06,0.001421394271383881
2018-03-07,-0.0009795971272232229
2018-03-08,-0.004982779001756307
2018-03-09,0.01873224888264828
2018-03-12,0.012596078066880075
2018-03-13,-0.002681461103112258
2018-03-14,-0.00338113301816121
2018-03-15,0.0002339730739684999
2018-03-16,-0.0028231059269944354
2018-03-19,-0.009579196089693855
2018-03-20,-0.0008937447385113303
2018-03-21,0.003323528812787392
2018-03-22,0.004650973908081363
2018-03-23,-0.013416697079955436
2018-03-26,-0.010258900335679454
2018-03-27,-0.001842510812834837
2018-03-28,-0.007135417878066353
2018-03-29,-0.005511669287324775
2018-03-30,-0.005584816122890128
2018-04-02,-0.005986507414623848
2018-04-03,-0.00959034754010647
2018-04-04,0.0020892177687899475
2018-04-09,0.004048342463138552
2018-04-10,-0.0019694059478575256
2018-04-11,0.00094064553450127
2018-04-12,-0.0026628552210282153
2018-04-13,-0.008386268669511036
2018-04-16,-0.0038961225171593172
2018-04-17,-0.007081445931150758
2018-04-18,-0.0012117926502641313
2018-04-19,-0.003498384387767402
2018-04-20,-0.006529107725839197
2018-04-23,-0.010931251049231882
2018-04-24,-0.008556149723057974
2018-04-25,-0.00985064953349165
2018-04-26,-0.003543142160750627
2018-04-27,0.0018165865723353235
2018-05-02,0.006983827223083924
2018-05-03,-9.738035677140863e-05
2018-05-04,-0.0026318503180759317
2018-05-07,-0.0027158833189898004
2018-05-08,-0.00787028940555649
2018-05-09,-0.004793368973276086
2018-05-10,-0.0037056780894922665
2018-05-11,8.171490562217804e-05
2018-05-14,-0.008051167769790334
2018-05-15,-0.0032601933323445943
2018-05-16,-0.0040502540024518995
2018-05-17,0.0038238134280908567
2018-05-18,0.00714861707825043
2018-05-21,0.016985646150867905
2018-05-22,0.027286834005308142
2018-05-23,0.025987312290898876
2018-05-24,0.015244718539832666
2018-05-25,0.013027158246887426
2018-05-28,0.010579048116620209
2018-05-29,0.006550099654175277
2018-05-30,0.0013284635470166245
2018-05-31,1.5803046133862353e-05
2018-06-01,0.005860364088003682
2018-06-04,0.02570602576917373
2018-06-05,0.016010005993101727
2018-06-06,0.019136506889279085
2018-06-07,0.016820099364649885
2018-06-08,0.012467618336109008
2018-06-11,0.022977821496467085
2018-06-12,0.019195220802799187
2018-06-13,0.018405670983256683
2018-06-14,0.0175463335191269
2018-06-15,0.02433297266878108
2018-06-19,0.007026264339751467
2018-06-20,0.0033950900155246544
2018-06-21,0.0054199761573615335
2018-06-22,-0.003573583347986152
2018-06-25,-0.005701570287553066
2018-06-26,-0.011932262999760182
2018-06-27,-0.00410127973131093
2018-06-28,-0.008865114490755277
2018-06-29,-0.0025022442021123458
2018-07-02,-0.007390730687955324
2018-07-03,-0.008880448154505196
2018-07-04,-0.0014359773119993063
2018-07-05,0.004047552075123997
2018-07-06,0.0028109921104645143
2018-07-09,-0.005595595820355015
2018-07-10,-0.005694975457245
2018-07-11,-0.010108236889600157
2018-07-12,-0.012791780754777873
2018-07-13,-0.01761895622103845
2018-07-16,-0.025971102671726427
2018-07-17,-0.018869090828551524
2018-07-18,-0.015396023391491683
2018-07-19,-0.014892551336937085
2018-07-20,-0.01278267982855914
2018-07-23,-0.0022214727758713415
2018-07-24,-0.0031666519611344562
2018-07-25,-0.009966587389673542
2018-07-26,-0.00012305365672069662
2018-07-27,0.00255885909929714
2018-07-30,0.00409012756077284
2018-07-31,0.005044919047014821
2018-08-01,0.0024981159057658325
2018-08-02,0.005149222349824213
2018-08-03,-0.0014285171069004302
2018-08-06,-0.003799793226228025
2018-08-07,0.003271816261791698
2018-08-08,0.0030835050372035834
2018-08-09,0.005566240096323612
2018-08-10,0.002452694685646059
2018-08-13,0.0011875766736718007
2018-08-14,0.003738009383224185
2018-08-15,0.0022371984131346594
2018-08-16,0.0014066279051281726
2018-08-17,0.008522047543450624
2018-08-20,0.0032499717986140117
2018-08-21,0.003295077979435037
2018-08-22,0.0039852271780594995
2018-08-23,0.010397852569828527
2018-08-24,0.0044813545217182406
2018-08-27,0.0068924518686107605
2018-08-28,0.005239648498349188
2018-08-29,0.0034047776636744118
2018-08-30,-0.003188418927672791
2018-08-31,-0.0032614913188485743
2018-09-03,0.005161159458592229
2018-09-04,-0.0030994616032829977
2018-09-05,-0.014804254197523632
2018-09-06,-0.014391083641734526
2018-09-07,-0.012153601629835382
2018-09-10,-0.013886587481682679
2018-09-11,-0.011591968674845847
2018-09-12,-0.009851369483921658
2018-09-13,-0.0021212418086802576
2018-09-14,0.007066878245155768
2018-09-17,-0.0014950539555617561
2018-09-18,0.0012486932418064763
2018-09-19,0.021069096369425964
2018-09-20,0.02373919810684693
2018-09-21,0.018787751418414905
2018-09-25,0.017426875194560404
2018-09-26,0.015231809977500732
2018-09-27,0.019697676737561773
2018-09-28,0.020384281531484374
2018-10-08,0.014670670336879691
2018-10-09,0.014302254345781043
2018-10-10,0.012974829222618924
2018-10-11,-0.011358430233613052
2018-10-12,-0.01401972235007809
2018-10-15,-0.022336012064233524
2018-10-16,-0.02823329293429345
2018-10-17,-0.028551645285991623
2018-10-18,-0.04124980369024828
2018-10-19,-0.03871796461909543
2018-10-22,-0.02746933670528433
2018-10-23,-0.025673536048871577
2018-10-24,-0.01802262793601924
2018-10-25,-0.017258318419563438
2018-10-26,-0.021129661686313212
2018-10-29,-0.017038855389559876
2018-10-30,-0.020317346738669154
2018-10-31,-0.01905626125214757
2018-11-01,-0.018728051352338668
2018-11-02,-0.01684675575912274
2018-11-05,-0.01133427315362236
2018-11-06,-0.002556193050849812
2018-11-07,-0.0003254878159705977
2018-11-08,-0.008267065932438195
2018-11-09,0.0016308475992416233
2018-11-12,0.0030904405040568083
2018-11-13,0.00424866304717714
2018-11-14,0.005792925935490389
2018-11-15,0.00832292417012304
2018-11-16,0.008423851562912116
2018-11-19,0.006753219661806889
2018-11-20,0.0019176804753775895
2018-11-21,0.001824265636140402
2018-11-22,0.007161659941534083
2018-11-23,0.00040592215002137506
2018-11-26,-0.0019747327192716807
2018-11-27,-0.001042422774166361
2018-11-28,-0.0036191331914141034
2018-11-29,-0.0017524915439176402
2018-11-30,0.004143031119971108
2018-12-03,0.0014907102468860595
2018-12-04,0.0026829722267304665
2018-12-05,0.006257606662465543
2018-12-06,-0.0004772441207624538
2018-12-07,0.007058926264278675
2018-12-10,0.006137252597051057
2018-12-11,0.00746809421333575
2018-12-12,0.005108091395565131
2018-12-13,0.006933326411961205
2018-12-14,0.005906627549719129
2018-12-17,0.008942469073726686
2018-12-18,0.005432711257976196
2018-12-19,5.01904297395845e-05
2018-12-20,-1.3013201077518004e-05
2018-12-21,-0.006477273059870807
2018-12-24,-0.0011988003248806873
2018-12-25,0.003484021340566558
2018-12-26,0.001382205147626086
2018-12-27,-0.004773040289950799
2018-12-28,-0.010371678910079337
2019-01-02,-0.012252615666812683
2019-01-03,-0.007600380371467
2019-01-04,-0.0012535510694818494
2019-01-07,-0.0007912128870219484
2019-01-08,0.0033420455781873193
2019-01-09,-0.0012104512705514246
2019-01-10,-0.0019038801552788993
2019-01-11,0.0037102862811248423
2019-01-14,0.0012568872882418765
2019-01-15,0.00960489444928471
2019-01-16,0.011792520052667264
2019-01-17,0.0117133876015349
2019-01-18,0.009381838823581361
2019-01-21,0.008078668589260526
2019-01-22,-0.0004354195808876013
2019-01-23,-0.007218793184934
2019-01-24,0.0073121816177644725
2019-01-25,0.00046491446468583525
2019-01-28,-0.010276573507038221
2019-01-29,-0.008079233286119425
2019-01-30,-0.014936154456191036
2019-01-31,-0.017982877090476593
2019-02-01,-0.006267236688060368
2019-02-11,-0.01901700030992444
2019-02-12,-0.02683244758840428
2019-02-13,-0.02677544433828203
2019-02-14,-0.02936466817644494
2019-02-15,-0.03429460632830235
2019-02-18,-0.023217873844006365
2019-02-19,-0.008157870166799253
2019-02-20,-0.01769371510160414
2019-02-21,-0.03825439863241281
2019-02-22,-0.00961298527128819
2019-02-25,-0.018439198268740138
2019-02-26,-0.007660434483760727
2019-02-27,-0.008561412366166157
2019-02-28,-0.00031558324290942297
2019-03-01,-0.005838859217938509
2019-03-04,-0.011369632886652388
2019-03-05,-0.009399311892971766
2019-03-06,-0.004954561803180525
2019-03-07,-0.0012802213557335934
2019-03-08,-0.005995253797473669
2019-03-11,-0.006162420534718931
2019-03-12,-0.00028874128461518767
2019-03-13,-0.0036069543706612334
2019-03-14,0.0021154070409780054
2019-03-15,0.009128269127942394
2019-03-18,0.013801422272204218
2019-03-19,0.006940273128555351
2019-03-20,0.004638590636882427
2019-03-21,0.0030519764534190155
2019-03-22,0.002438597344826522
2019-03-25,-0.005208858282666304
2019-03-26,-0.006477898114941288
2019-03-27,-0.003925533749796581
2019-03-28,-0.002807082942604268
2019-03-29,-0.012101688454246563
2019-04-01,-0.012040366407233001
2019-04-02,-0.0024671940803703413
2019-04-03,-0.002663253775656786
2019-04-04,-0.0013708695363732482
2019-04-08,0.0053853876340745205
2019-04-09,0.0015453426260568295
2019-04-10,0.0010752896970326001
2019-04-11,0.00313441006458557
2019-04-12,0.0035268384522511367
2019-04-15,0.005466198625883732
2019-04-16,0.008824156284471453
2019-04-17,-0.005176368573525908
2019-04-18,0.003741026526024316
2019-04-19,0.0018726248349570096
2019-04-22,0.008775515956563146
2019-04-23,0.007421432559142807
2019-04-24,0.01161925055803268
2019-04-25,0.008856045370094198
2019-04-26,0.011981107405162172
2019-04-29,0.005383565718419164
2019-04-30,-0.00022917587308658727
2019-05-06,-0.0009308414211888216
2019-05-07,0.002001170652129833
2019-05-08,0.003941292375945421
2019-05-09,-0.0014192697809023852
2019-05-10,0.0032018682999472303
2019-05-13,0.003185253403882621
2019-05-14,0.004165879473974406
2019-05-15,0.0055160951555297405
2019-05-16,0.013664745767476859
2019-05-17,0.008822397257957325
2019-05-20,0.010218965224555893
2019-05-21,0.007733439268959573
2019-05-22,0.0010065483036688916
2019-05-23,4.4117121992981456e-05
2019-05-24,-0.007203465662998013
2019-05-27,-0.0028214760119348557
2019-05-28,-0.00387773928896816
2019-05-29,-0.004666484802453871
2019-05-30,-0.005318370449613789
2019-05-31,-0.0067546356143252505
2019-06-03,-0.005935432082092438
2019-06-04,-0.010022095457198107
2019-06-05,-0.007266824824555845
2019-06-06,-0.011411286653636166
2019-06-10,-0.007542575309633613
2019-06-11,-0.005863649140899468
2019-06-12,-0.0011201976012553232
2019-06-13,-0.004682411284508671
2019-06-14,-0.0030036419479651452
2019-06-17,0.005760677729627441
2019-06-18,-0.000246738285873932
2019-06-19,-0.004163143341454942
2019-06-20,-0.0014976190592288236
2019-06-21,0.004410628854507709
2019-06-24,0.010713666639740072
2019-06-25,0.004920616673706723
2019-06-26,0.010844103847099669
2019-06-27,0.008426250952087985
2019-06-28,0.0004568796850079543
2019-07-01,0.004949824762415213
2019-07-02,0.004305691673132571
2019-07-03,0.01164488284835119
2019-07-04,0.011458376057392295
2019-07-05,0.005389795851555353
2019-07-08,0.00422414859791935
2019-07-09,0.003110013155191103
2019-07-10,-0.0032344985231323297
2019-07-11,-0.002449028693471725
2019-07-12,-0.00013334108741748334
2019-07-15,0.000388878950115217
2019-07-16,0.0007186250409319892
2019-07-17,0.004527011244413112
2019-07-18,-0.0005532245225582273
2019-07-19,0.002683743517337506
2019-07-22,-0.0060461526736953555
2019-07-23,0.007073023709063025
2019-07-24,0.000987617489041942
2019-07-25,0.0028178994825802488
2019-07-26,-0.0020162756257179823
2019-07-29,0.002668257689192207
2019-07-30,0.002539253214131683
2019-07-31,0.0020066686556602757
2019-08-01,0.005980350007238375
2019-08-02,0.00589194065190402
2019-08-05,0.0023106723452538634
2019-08-06,-0.002415295337308894
2019-08-07,0.005301701012223471
2019-08-08,0.0009285324815870681
2019-08-09,0.0008957406424643169
2019-08-12,-0.0022155717597708343
2019-08-13,-0.006045960061757002
2019-08-14,-0.004207597161818691
2019-08-15,-0.011154678739927787
2019-08-16,-0.008486461013943267
2019-08-19,-0.006665212341446675
2019-08-20,-0.005971712077397407
2019-08-21,-0.010498870088404864
2019-08-22,-0.010783033477426988
2019-08-23,-0.008450718487019799
2019-08-26,-0.017616350222137485
2019-08-27,-0.015237919384271749
2019-08-28,-0.016584710205508536
2019-08-29,-0.016023952084601688
2019-08-30,-0.020391675877189333
2019-09-02,-0.007231717786761811
2019-09-03,-0.006444334453337161
2019-09-04,-0.007333381959764794
2019-09-05,-0.006249013254456931
2019-09-06,-0.0012214850137980697
2019-09-09,0.0027041853408301553
2019-09-10,0.004728461911025453
2019-09-11,0.006443906584317496
2019-09-12,0.01016369546922834
2019-09-16,0.007249416627689048
2019-09-17,0.005550943186403468
2019-09-18,0.0032048243293345876
2019-09-19,0.001422093158027004
2019-09-20,-0.003204048693081902
2019-09-23,-0.007933923443203978
2019-09-24,-0.006270984507549848
2019-09-25,-0.00917456609750857
2019-09-26,-0.0017254533343196102
2019-09-27,-0.0065547986031127105
2019-09-30,-0.004911825593181872
2019-10-08,-0.002717009872857291
2019-10-09,-0.0007869568772275078
2019-10-10,-0.006383112154620618
2019-10-11,0.0008919311867621573
2019-10-14,-0.00422708003563032
2019-10-15,0.0015025753360755835
2019-10-16,0.00886176824498725
2019-10-17,0.007041342035578702
2019-10-18,0.008370672647832048
2019-10-21,0.006506638612386602
2019-10-22,0.004967743626037628
2019-10-23,0.006065270467753743
2019-10-24,0.009627244115987525
2019-10-25,0.0024528024717718894
2019-10-28,0.008461182986741537
2019-10-29,0.0078029619120531715
2019-10-30,0.01169863610431306
2019-10-31,0.014369690153582682
2019-11-01,0.006904141358186733
2019-11-04,0.004076603719552773
2019-11-05,0.0027983134094763957
2019-11-06,0.002236044167894204
2019-11-07,0.0019856735094180896
2019-11-08,-0.005204652986946499
2019-11-11,-0.020530514706336548
2019-11-12,-0.01960554274236364
2019-11-13,-0.019270067007015612
2019-11-14,-0.017565437173372264
2019-11-15,-0.016722068445059867
2019-11-18,-0.016274987204263514
2019-11-19,-0.009763342676808683
2019-11-20,-0.008700703601739104
2019-11-21,-0.009521724513260938
2019-11-22,0.0005983847846519931
2019-11-25,0.010463369976108933
2019-11-26,0.009777757914684434
2019-11-27,0.0032114708286024325
2019-11-28,0.013906147122294849
2019-11-29,0.012684040148897704
2019-12-02,0.00967576806806325
2019-12-03,0.006117871075752991
2019-12-04,0.005297390518729267
2019-12-05,-0.0009526616010968533
2019-12-06,-0.0027329126876136298
2019-12-09,-0.0009396209742503301
2019-12-10,-0.007025918002732702
2019-12-11,0.0012507007809431682
2019-12-12,-0.007388253435064756
2019-12-13,-0.008947650392865937
2019-12-16,-0.01326812135696754
2019-12-17,-0.00898578727981367
2019-12-18,-0.010391437626030942
2019-12-19,-0.009613373549381871
2019-12-20,-0.013325174148740737
2019-12-23,-0.007523408141875444
2019-12-24,-0.002284821449329382
2019-12-25,-0.006622587735656323
2019-12-26,0.00297420785387233
2019-12-27,0.01687942736721209
2019-12-30,0.013467596015088412
2019-12-31,0.02006767993798163
2020-01-02,0.014708890744396226
2020-01-03,0.019078317245842975
2020-01-06,0.02784297370093281
2020-01-07,0.034351498128443674
2020-01-08,0.03279374006782702
2020-01-09,0.036250491004551876
2020-01-10,0.04895988786461625
2020-01-13,0.04668487260206531
2020-01-14,0.0416730220130097
2020-01-15,0.0326468293387524
2020-01-16,0.040638641550855344
2020-01-17,0.03662058323422937
2020-01-20,0.02960112981345122
2020-01-21,0.032461409460545744
2020-01-22,0.03525842059792235
2020-01-23,0.02576292846105076
2020-02-03,0.005173080586374612
2020-02-04,0.0068184862831600634
2020-02-05,0.012781089843797562
2020-02-06,0.018123847498506006
2020-02-07,0.0222768538228516
2020-02-10,0.0416862187526298
2020-02-11,0.043890842536142935
2020-02-12,0.027166702217148064
2020-02-13,0.020989928716649894
2020-02-14,0.025288451479225347
2020-02-17,0.020960304374247243
2020-02-18,0.013681074656479003
2020-02-19,0.011742453841890321
2020-02-20,0.004179316700318241
2020-02-21,0.004568482136996782
2020-02-24,-0.006345740626066278
2020-02-25,-0.010990454940079983
2020-02-26,0.004759429514153472
2020-02-27,0.011030083635322034
2020-02-28,0.027651575072470257
2020-03-02,0.024468803150309165
2020-03-03,0.017734326089103802
2020-03-04,0.029513707253437826
2020-03-05,0.047756032072241536
2020-03-06,0.031953424542810555
2020-03-09,0.026920749846989986
2020-03-10,0.004848253941253239
2020-03-11,0.0021873361337052394
2020-03-12,-0.002616124686866887
2020-03-13,-0.01965445341753057
2020-03-16,-0.01771868778299256
2020-03-17,-0.021449531733125932
2020-03-18,-0.01738589423498572
2020-03-19,-0.02801624051796713
2020-03-20,-0.014719120625843662
2020-03-23,-0.01224427663663713
2020-03-24,0.006589920697206698
2020-03-25,0.006268478749247373
2020-03-26,0.00019380320348076456
2020-03-27,0.001381064659035318
2020-03-30,0.006579316760351818
2020-03-31,0.006326039525256535
2020-04-01,0.008166033799254676
2020-04-02,0.011731756901249649
2020-04-03,0.009786567834787686
2020-04-07,0.010395635696217563
2020-04-08,0.01597106707858093
2020-04-09,0.013711710684587217
2020-04-10,0.01573074049837313
2020-04-13,0.020466610336951987
2020-04-14,0.03488119984313521
2020-04-15,0.02544078198465852
2020-04-16,0.020550745331553533
2020-04-17,0.019362555282188294
2020-04-20,0.022279872303019956
2020-04-21,0.018692333848008072
2020-04-22,0.008018791613539054
2020-04-23,0.016505232583792533
2020-04-24,0.020020979652933663
2020-04-27,0.023048168467294818
2020-04-28,0.015582791690414727
2020-04-29,0.013973490153793287
2020-04-30,0.02019454949381516
2020-05-06,0.013805753676337053
2020-05-07,0.0068880545687333445
2020-05-08,0.008511883011055581
2020-05-11,0.014949233018809653
2020-05-12,0.008964705731355944
2020-05-13,-0.00026168334645452
2020-05-14,-0.007631404008322188
2020-05-15,-0.006361989327810856
2020-05-18,5.6013572130007155e-05
2020-05-19,-0.005949351293142878
2020-05-20,-0.004555204878952614
2020-05-21,-0.0018879181038465621
2020-05-22,-0.0016714798719383445
2020-05-25,-0.005412511912063926
2020-05-26,-0.005776586114732595
2020-05-27,0.00676437960175745
2020-05-28,0.012019383693424167
2020-05-29,0.010082415951950575
2020-06-01,0.010764851210403888
2020-06-02,0.01124279881512542
2020-06-03,0.010619312750774625
2020-06-04,0.0010071076086264376
2020-06-05,0.006056607021134006
2020-06-08,0.016335093569295696
2020-06-09,0.02083316462499017
2020-06-10,0.01695932857623779
2020-06-11,0.021498376507879814
2020-06-12,0.01679488903871017
2020-06-15,0.006123639704242977
2020-06-16,-0.0028728614515461035
2020-06-17,-0.009455915523937333
2020-06-18,-0.022358653007597415
2020-06-19,-0.0186447209605341
2020-06-22,-0.04098654946255903
2020-06-23,-0.04879561186355032
2020-06-24,-0.02766612019455171
2020-06-29,-0.02804346318535675
2020-06-30,-0.031402290692276735
2020-07-01,-0.008942311017677132
2020-07-02,-0.010409787183707199
2020-07-03,-0.00787298828209946
2020-07-06,-0.019262042586299627
2020-07-07,-0.016993053527893764
2020-07-08,-0.01887096868420802
2020-07-09,-0.011556256006868581
2020-07-10,-0.02670607763118974
2020-07-13,-0.026404487151866253
2020-07-14,-0.02557950885751781
2020-07-15,-0.02061802309499563
2020-07-16,-0.010420167862574117
2020-07-17,0.0027648494203897714
2020-07-20,0.008946902230003186
2020-07-21,0.006150949205767914
2020-07-22,0.008244865015659115
2020-07-23,0.007647480891950061
2020-07-24,0.015109729790501094
2020-07-27,0.010742317938812272
2020-07-28,0.003045495893172056
2020-07-29,-0.011920778087804892
2020-07-30,-0.022489807304094663
2020-07-31,-0.02579986550247148
2020-08-03,-0.031809217470219225
2020-08-04,-0.022908851884059066
2020-08-05,-0.04000398355771166
2020-08-06,-0.03306088538030062
2020-08-07,-0.02785332603774815
2020-08-10,-0.023713287806127335
2020-08-11,-0.01737216879802622
2020-08-12,-0.01116355185986163
2020-08-13,0.0014954099252468545
2020-08-14,0.0008024765054001886
2020-08-17,-0.004751151713837899
2020-08-18,-0.003157308854276163
2020-08-19,0.009905016129931419
2020-08-20,0.005145433920695542
2020-08-21,0.007078950953787019
2020-08-24,-0.0019245731376940425
2020-08-25,-0.010024834319597314
2020-08-26,-0.009499390832893211
2020-08-27,-0.020446272645921602
2020-08-28,-0.022502845475629113
2020-08-31,-0.02428393787190082
2020-09-01,-0.02037907856394333
2020-09-02,-0.029614213162873434
2020-09-03,-0.024156585134209645
2020-09-04,-0.02188900641700979
2020-09-07,-0.010783311246196883
2020-09-08,0.0007031113694123525
2020-09-09,0.0140811377000687
2020-09-10,0.018303997111503052
2020-09-11,0.011467796403658618
2020-09-14,0.0067396910667177155
2020-09-15,0.007883228592015085
2020-09-16,0.016687078875878725
2020-09-17,0.01848084646034221
2020-09-18,0.026420585006503745
2020-09-21,0.030952158997094865
2020-09-22,0.020386849196555812
2020-09-23,0.012199349615271594
2020-09-24,0.007061193734324463
2020-09-25,0.00013728372911615827
2020-09-28,0.014115802673235311
2020-09-29,-0.0002935831711160207
2020-09-30,-0.002705124275593218
2020-10-09,-0.014949823113989484
2020-10-12,-0.015345779738565107
2020-10-13,-0.010708877651931667
2020-10-14,-0.007344985546508271
2020-10-15,0.0014187316364833629
2020-10-16,0.004577175865846064
2020-10-19,0.009715376086700553
2020-10-20,-0.0021916228987464187
2020-10-21,-0.0001521885238006497
2020-10-22,-0.006333033895606759
2020-10-23,-0.0028536182230533974
2020-10-26,-0.007015054107672024
2020-10-27,-0.015562681876573288
2020-10-28,-0.03553683805458602
2020-10-29,-0.03657424239850279
2020-10-30,-0.037627194664833455
2020-11-02,-0.05304370737430371
2020-11-03,-0.047964832674838725
2020-11-04,-0.05494424829159529
2020-11-05,-0.04251149742539113
2020-11-06,-0.032276178956683464
2020-11-09,-0.04300405128900685
2020-11-10,-0.04370810640139585
2020-11-11,-0.03106507295650393
2020-11-12,-0.03504586831940413
2020-11-13,-0.038650620078903915
2020-11-16,-0.027349817876692436
2020-11-17,-0.01837115088649406
2020-11-18,-0.010220217500647086
2020-11-19,-0.005915248294156284
2020-11-20,-0.0003019701804857101
2020-11-23,0.008227347610926259
2020-11-24,0.015645184360418108
2020-11-25,0.0128523823982045
2020-11-26,0.013407937578588238
2020-11-27,0.01899990870706062
2020-11-30,0.02187573042427763
2020-12-01,0.02001518440336449
2020-12-02,0.017051993867564244
2020-12-03,0.007102410016098514
2020-12-04,0.0017994878837450544
2020-12-07,0.006818937980244477
2020-12-08,0.006344807619147607
2020-12-09,0.006728664963484088
2020-12-10,0.011324921295514892
2020-12-11,0.00742683300790083
2020-12-14,0.0065817226698458384
2020-12-15,0.0015557973984381534
2020-12-16,0.0021899648509899512
2020-12-17,0.005741626518251872
2020-12-18,0.011880611087385636
2020-12-21,0.020336221938950655
2020-12-22,0.010453980329891602
2020-12-23,0.020718393717370748
2020-12-24,0.010211896563491848
2020-12-25,-0.00042990405860605235
2020-12-28,0.0036900632041943007
2020-12-29,0.004854289579633311
2020-12-30,0.0008892421891012262
2020-12-31,-0.003427107378425727
2021-01-04,-0.01744021296213928
2021-01-05,-0.050043331287915306
2021-01-06,-0.032731988974393944
2021-01-07,-0.029295126118339086
2021-01-08,-0.006202590417531059
2021-01-11,0.006008004042284219
2021-01-12,-0.00895644682492315
2021-01-13,-0.005354197623636773
2021-01-14,0.010238230475898422
2021-01-15,0.015039486897642755
2021-01-18,0.007297773153849323
2021-01-19,0.03218370775621009
2021-01-20,0.01667638040907931
2021-01-21,0.016220405468747322
2021-01-22,-0.0005183392219541214
2021-01-25,-0.010546529215731057
2021-01-26,0.007924703666975695
2021-01-27,0.020365354344056442
2021-01-28,-0.003844270140053875
2021-01-29,-0.018787811323255924
2021-02-01,-0.04403803152573527
2021-02-02,-0.05049881391661233
2021-02-03,-0.05486583689177035
2021-02-04,-0.07157176506349466
2021-02-05,-0.06431678331264012
2021-02-08,-0.06919412975763699
2021-02-09,-0.06849531014666305
2021-02-10,-0.07975312141964085
2021-02-18,-0.06619722201596523
2021-02-19,-0.05350147468348532
2021-02-22,-0.05194701065897771
2021-02-23,-0.05644999595268882
2021-02-24,-0.03603882325946875
2021-02-25,-0.025144630352934575
2021-02-26,-0.03139842044549605
2021-03-01,-0.04424979036207851
2021-03-02,-0.03416932132323944
2021-03-03,-0.028977890533919158
2021-03-04,-0.013683859545165059
2021-03-05,-0.017574265423107367
2021-03-08,-0.010068647770157854
2021-03-09,0.0009989059371026607
2021-03-10,-0.00947063659294721
2021-03-11,-0.006918780033989189
2021-03-12,-0.0017364846445943258
2021-03-15,0.002584071455264036
2021-03-16,0.006441359775651046
2021-03-17,0.001922279171827446
2021-03-18,0.005104679100243781
2021-03-19,0.01356299319672641
2021-03-22,0.01463221270066994
2021-03-23,0.006475318678576312
2021-03-24,0.00816468899220131
2021-03-25,0.0039542131124902236
2021-03-26,-0.0036649100677534777
2021-03-29,0.002783680943878078
2021-03-30,-0.0008666488545166938
2021-03-31,0.0015144586074175193
2021-04-01,-0.012322253571281439
2021-04-02,-0.00893592051391111
2021-04-06,-0.0028333115532949466
2021-04-07,0.009083389986030773
2021-04-08,0.003728826455466204
2021-04-09,0.01527601915214638
2021-04-12,0.017500572409639634
2021-04-13,0.016623810761651352
2021-04-14,0.02067947907674929
2021-04-15,0.017745195510585423
2021-04-16,0.03379911508296576
2021-04-19,0.027412643032659632
2021-04-20,0.016333912637601956
2021-04-21,0.013435825197009461
2021-04-22,0.015470036355258029
2021-04-23,0.00891340054781879
2021-04-26,0.010257057648766237
2021-04-27,0.007405520278021171
2021-04-28,0.012700680319505034
2021-04-29,0.012129378244812044
2021-04-30,0.009408101748128608
2021-05-06,0.017256900074361866
2021-05-07,0.02511838289713823
2021-05-10,0.01287734738971703
2021-05-11,0.00976906671384739
2021-05-12,0.006487533835002359
2021-05-13,0.009765558460326056
2021-05-14,0.0033119963446353907
2021-05-17,0.0038376231156574472
2021-05-18,0.009619310065619679
2021-05-19,0.0004157643383075789
2021-05-20,0.0015609530460085445
2021-05-21,0.007784624771716899
2021-05-24,0.006706493744164387
2021-05-25,-0.0017719294316380402
2021-05-26,0.003938624771548407
2021-05-27,0.003506952818650814
2021-05-28,0.003237516494262684
2021-05-31,-0.0014773076318818947
2021-06-01,-0.011611197040691454
2021-06-02,0.005375391324925576
2021-06-03,0.0053184978082532215
2021-06-04,0.005303248355684097
2021-06-07,0.004213033377082647
2021-06-08,0.011219535130192372
2021-06-09,0.007258277892065831
2021-06-10,0.006305655351211643
2021-06-11,0.011114582274709106
2021-06-15,0.011692332433774984
2021-06-16,0.030988166299038646
2021-06-17,0.019791483842667133
2021-06-18,0.009444977911650753
2021-06-21,0.010720808313669039
2021-06-22,0.005258152735791458
2021-06-23,0.020404203985345662
2021-06-24,0.03380804915012714
2021-06-25,0.025559119024774615
2021-06-28,0.0277871535671907
2021-06-29,0.014931240947731472
2021-06-30,0.013448730049294224
2021-07-01,0.020290371053674712
2021-07-02,0.02086918390134461
2021-07-05,0.018147234054027055
2021-07-06,0.03472511253408919
2021-07-07,0.03486110009175865
2021-07-08,0.015422178292284155
2021-07-09,0.02176287241833759
2021-07-12,0.02131796826861924
2021-07-13,0.039786249106172546
2021-07-14,0.03335971624774624
2021-07-15,0.0334275429834031
2021-07-16,0.043733213764515194
2021-07-19,0.030052692925977002
2021-07-20,0.020076560055757562
2021-07-21,0.0193431223025139
2021-07-22,0.026819184356240703
2021-07-23,0.024745342989143798
2021-07-26,0.01428101888406411
2021-07-27,0.010848820666894701
2021-07-28,0.001813757472039365
2021-07-29,-0.01016028313299825
2021-07-30,-0.015042936287533872
2021-08-02,-0.019753665963196942
2021-08-03,-0.010029588863561617
2021-08-04,-0.026865344010360104
2021-08-05,-0.01807137608706583
2021-08-06,-0.019323260872488656
2021-08-09,-0.0015696427875999692
2021-08-10,0.005656098414028528
2021-08-11,0.005471109905030519
2021-08-12,0.005367193979320052
2021-08-13,0.01111488068710845
2021-08-16,0.027989826261450745
2021-08-17,0.026026428396913263
2021-08-18,-0.00013370538109453226
2021-08-19,-0.010882923688028307
2021-08-20,-0.022211909102613038
2021-08-23,-0.021559188342750082
2021-08-24,-0.019751794474489697
2021-08-25,-0.031046352916586237
2021-08-26,-0.02682319482072432
2021-08-27,-0.026751193565299283
2021-08-30,-0.03886754404251032
2021-08-31,-0.020159377517162312
2021-09-01,0.003109331992463278
2021-09-02,0.001029578381825466
2021-09-03,0.007080629553860888
2021-09-06,0.00889292002490141
2021-09-07,0.004944660538826607
2021-09-08,0.011236393198291844
2021-09-09,-0.004783907845772619
2021-09-10,-0.005942613280957704
2021-09-13,-0.012415045932026907
2021-09-14,-0.011516247115373537
2021-09-15,-0.023709663553867204
2021-09-16,-0.023935101369145187
2021-09-17,-0.018844090705408104
2021-09-22,-0.028829346149045747
2021-09-23,-0.02408975388771441
2021-09-24,-0.016730975463667624
2021-09-27,1.9284099873757756e-05
2021-09-28,-0.012985765575228793
2021-09-29,-0.003399969635584449
2021-09-30,-0.0072958074547495155
2021-10-08,-0.008166792781889424
2021-10-11,0.0066910224446397005
2021-10-12,0.0067772181632552095
2021-10-13,0.008298192146575822
2021-10-14,0.00016234507611686145
2021-10-15,-0.0023301363762157625
2021-10-18,-0.011855288096041547
2021-10-19,-0.009724016214736987
2021-10-20,-0.004601980687323499
2021-10-21,-0.012234436468381238
2021-10-22,-0.008554748774188874
2021-10-25,-0.0075919957030320655
2021-10-26,-0.005663197472661283
2021-10-27,-0.01617531606420672
2021-10-28,-0.011056526926992181
2021-10-29,-0.011184296893807353
2021-11-01,-0.02510520701408274
2021-11-02,-0.027556757300972422
2021-11-03,-0.020885527253963487
2021-11-04,-0.012226444886224685
2021-11-05,-0.004859075598667828
2021-11-08,-0.0031051910527980266
2021-11-09,-0.0016052706021579492
2021-11-10,0.0022868064146207862
2021-11-11,0.004420360839122249
2021-11-12,0.0120423086340397
2021-11-15,0.03259157578098874
2021-11-16,0.04685426454256831
2021-11-17,0.03858082283653307
2021-11-18,0.02796045313991228
2021-11-19,0.028111638651464765
2021-11-22,0.022118537777240564
2021-11-23,0.010426420749521863
2021-11-24,0.010789482382499738
2021-11-25,0.00785354193752491
2021-11-26,0.002654141506295513
2021-11-29,-0.009512033601235665
2021-11-30,-0.01531443535566343
2021-12-01,-0.005042980145185109
2021-12-02,-0.004074110974204022
2021-12-03,-0.007455028956441188
2021-12-06,-0.012059010641949343
2021-12-07,-0.004993350590939548
2021-12-08,-0.002085820050020736
2021-12-09,0.005269463355305988
2021-12-10,-0.005124478313015296
2021-12-13,-0.0039005827537880802
2021-12-14,-0.002568181045388914
2021-12-15,-0.0053530424112787234
2021-12-16,-0.002254344863188649
2021-12-17,-0.009452849341931597
2021-12-20,-0.014064147025828175
2021-12-21,-0.013766964904754066
2021-12-22,-0.007851364350905587
2021-12-23,-0.01604933837266266
2021-12-24,-0.017035295179172426
2021-12-27,-0.014316834506276688
2021-12-28,-0.020488522007776788
2021-12-29,-0.02904256084121582
2021-12-30,-0.030932939258713835
2021-12-31,-0.020794391417485826
2022-01-04,-0.017683026072039296
2022-01-05,-0.017281091485487475
2022-01-06,-0.032732105649624664
2022-01-07,-0.015908971704028843
2022-01-10,-0.0006699037503890837
2022-01-11,0.008088570865222924
2022-01-12,0.01150323938863905
2022-01-13,0.015300168785044178
2022-01-14,0.007826322492473621
2022-01-17,-0.003287858036387363
2022-01-18,-0.004888882259619226
2022-01-19,-0.012005119793304393
2022-01-20,-0.0021849210554876555
2022-01-21,-0.0027603230613975627
2022-01-24,-0.0073105887065267675
2022-01-25,-0.010175576651984342
2022-01-26,-0.016551778886274512
2022-01-27,-0.016506516097372973
2022-01-28,-0.0163489192392738
2022-02-07,0.0010961531762295976
2022-02-08,0.015647795140074895
2022-02-09,0.01966069880493727
2022-02-10,0.03314998967605984
2022-02-11,0.029963555988296635
2022-02-14,0.032445854334102464
2022-02-15,0.025306504965136423
2022-02-16,0.03797660826527549
2022-02-17,0.03668385427065409
2022-02-18,0.038984200631285035
2022-02-21,0.04372109840239545
2022-02-22,0.03417208879314119
2022-02-23,0.04227205824765853
2022-02-24,0.030961600361851506
2022-02-25,0.034062668019307185
2022-02-28,0.03750058286461717
2022-03-01,0.05665854463693132
2022-03-02,0.0421756329016392
2022-03-03,0.024426702812069295
2022-03-04,0.015599249877803367
2022-03-07,0.012604574019992912
2022-03-08,0.00014757393242756205
2022-03-09,-0.02513734558404134
2022-03-10,-0.016436230130269316
2022-03-11,-0.003612709657202137
2022-03-14,-0.016562572984141415
2022-03-15,-0.04051677276528094
2022-03-16,-0.024008446092142175
2022-03-17,-0.003428262382825414
2022-03-18,-0.0020411685258786938
2022-03-21,-0.012192382989249663
2022-03-22,-0.004496708752635817
2022-03-23,0.008324579373020172
2022-03-24,0.013646956637882138
2022-03-25,0.004301044219437642
2022-03-28,0.011473984203102097
2022-03-29,0.002512069327116397
2022-03-30,0.012499721792456394
2022-03-31,0.01371365896762575
2022-04-01,0.019850573998175754
2022-04-06,0.014341231022410417
2022-04-07,0.015177001104997707
2022-04-08,0.012463302362231865
2022-04-11,0.01140309020053186
2022-04-12,0.017440700075636917
2022-04-13,0.006317405688807093
2022-04-14,0.014197323944514478
2022-04-15,0.004279416906949461
2022-04-18,-0.0033183658390910087
2022-04-19,-0.004103766575832814
2022-04-20,-0.00017021413339426278
2022-04-21,-0.002850239248849846
2022-04-22,-0.005897134890287991
2022-04-25,-0.008921297882105737
2022-04-26,0.0029583100455099626
2022-04-27,0.0019674496268936095
2022-04-28,-0.0012053390996158084
2022-04-29,0.014256548579875433
2022-05-05,0.0159065153514526
2022-05-06,0.002361448673596174
2022-05-09,0.0012223275201511813
2022-05-10,0.0024185026500211614
2022-05-11,0.005678490759531425
2022-05-12,0.009968248446407325
2022-05-13,0.0076262856850906864
2022-05-16,0.0009160629186988796
2022-05-17,-0.002492229051858183
2022-05-18,0.0007464954437275823
2022-05-19,8.15969131814781e-05
2022-05-20,0.006383049624979983
2022-05-23,-0.005191025229434557
2022-05-24,-0.01876552452128913
2022-05-25,-0.012206129765175294
2022-05-26,-0.011358895805474528
2022-05-27,-0.00010679369155371793
2022-05-30,0.002884915054490081
2022-05-31,0.002571748783354255
2022-06-01,-0.0020424158172676066
2022-06-02,-0.006366704977799419
2022-06-06,-0.0037867869922088154
2022-06-07,-0.0010016567166416246
2022-06-08,0.010515906226582819
2022-06-09,0.013498409359569932
2022-06-10,0.012023127057055886
2022-06-13,0.0003321086803283191
2022-06-14,-0.002241271546185253
2022-06-15,0.00022183577694855766
2022-06-16,-0.00399580495600832
2022-06-17,-9.759572592166893e-05
2022-06-20,-0.0023305768396257934
2022-06-21,0.009964624805832434
2022-06-22,0.010008136882518063
2022-06-23,0.00996682587547372
2022-06-24,0.0052272169654638745
2022-06-27,0.006901643233493243
2022-06-28,0.006309597751744854
2022-06-29,0.017079789773513546
2022-06-30,0.02167410776474957
2022-07-01,0.024287010136048393
2022-07-04,0.015954390573609943
2022-07-05,0.006903232509701089
2022-07-06,-8.02588642069002e-05
2022-07-07,-0.00854357087683371
2022-07-08,-0.0022478209528483672
2022-07-11,-0.004130201162371469
2022-07-12,-0.005288470714031882
2022-07-13,-0.007281097473679384
2022-07-14,-0.019029735533719092
2022-07-15,-0.021192361257008248
2022-07-18,-0.004084335029149707
2022-07-19,0.010921021854715513
2022-07-20,0.012398449899523697
2022-07-21,0.006942751663905119
2022-07-22,0.0007799726889065632
2022-07-25,0.007354522070501568
2022-07-26,0.015682479982614288
2022-07-27,0.014083165537377857
2022-07-28,0.008312951330706657
2022-07-29,-0.0005753193219190968
2022-08-01,0.0014917811121280093
2022-08-02,-0.0017406109011490964
2022-08-03,0.0017638752051045078
2022-08-04,0.018693538831123915
2022-08-05,0.01295039285903353
2022-08-08,0.014057569976720806
2022-08-09,0.01159510981711951
2022-08-10,-0.002575201624330766
2022-08-11,-0.0016443190537213694
2022-08-12,-0.0036883970224796843
2022-08-15,-0.012065620375877441
2022-08-16,-0.02101363824734607
2022-08-17,-0.030377613372225575
2022-08-18,-0.031664476497145086
2022-08-19,-0.02841528816884273
2022-08-22,-0.0262830492292793
2022-08-23,-0.027933523552818966
2022-08-24,-0.012957915755726789
2022-08-25,-0.0018571006756840092
2022-08-26,-0.0019315968108417035
2022-08-29,-0.0026515750049085534
2022-08-30,0.000499294305084625
2022-08-31,0.00244388849925517
2022-09-01,-0.0014380412501212754
2022-09-02,0.0035941265059499655
2022-09-05,0.005854613943872471
2022-09-06,0.00571678043252629
2022-09-07,0.0047408446466024115
2022-09-08,0.004059039556640533
2022-09-09,0.013388556650308428
2022-09-13,0.004774353518609491
2022-09-14,0.0023186831467575247
2022-09-15,0.01731516853071611
2022-09-16,0.013183396758703822
2022-09-19,0.007691135447610534
2022-09-20,0.0095049040214404
2022-09-21,0.00868830780682233
2022-09-22,-0.002229074265975045
2022-09-23,-0.008825691581453443
2022-09-26,-0.014085107984389701
2022-09-27,-0.0037243330309617265
2022-09-28,0.006196970765271386
2022-09-29,-0.00015297588699931478
2022-09-30,-0.0020854631985547925
2022-10-10,0.018304870610175807
2022-10-11,0.01749599943711879
2022-10-12,0.013637869189287272
2022-10-13,0.004342924447117725
2022-10-14,0.01637213989389788
2022-10-17,0.01587226716873688
2022-10-18,0.005072965499058429
2022-10-19,-0.0050848878625486486
2022-10-20,-0.0010520362376272296
2022-10-21,-0.0028395375703049036
2022-10-24,-0.029244305737947902
2022-10-25,-0.028016246759828913
2022-10-26,-0.020381307355242857
2022-10-27,-0.010146088989638624
2022-10-28,-0.0284805978089716
2022-10-31,-0.03901557054243273
2022-11-01,-0.03118190016670299
2022-11-02,-0.027346939919853704
2022-11-03,-0.03732931477296572
2022-11-04,-0.033007533780428255
2022-11-07,-0.023164880527313424
2022-11-08,-0.023488882803094364
2022-11-09,-0.022281426078439182
2022-11-10,-0.021497710721698107
2022-11-11,-0.014867418100492996
2022-11-14,-0.009156247863564473
2022-11-15,-0.0118845517533995
2022-11-16,-0.010673406106764706
2022-11-17,-0.008207450748685726
2022-11-18,-0.006603727597958222
2022-11-21,-0.012036678955937269
2022-11-22,-0.005563036047007478
2022-11-23,-0.0013170378487412995
2022-11-24,-0.0036871857222150473
2022-11-25,0.0036086862378325174
2022-11-28,0.002452501147934563
2022-11-29,0.005015202897687494
2022-11-30,0.0026389293834131206
2022-12-01,0.0055252239688447155
2022-12-02,0.011699440726702126
2022-12-05,0.010665792002765032
2022-12-06,0.011419358832149788
2022-12-07,0.012452845972873366
2022-12-08,0.01198000062418825
2022-12-09,0.01112585401941451
2022-12-12,0.005310462337751048
2022-12-13,0.006491558626473973
2022-12-14,0.0061463273394091605
2022-12-15,0.009209437901011915
2022-12-16,0.0015771708638049851
2022-12-19,-0.0009695030284981995
2022-12-20,0.0011242107355254605
2022-12-21,-0.00696158128828275
2022-12-22,-0.013201070416377667
2022-12-23,-0.00971241311124009
2022-12-26,-0.0057285942832883685
2022-12-27,-0.003173219944941349
2022-12-28,-0.005666080975784884
2022-12-29,-0.0030761844167608438
2022-12-30,-0.01271661438444549
2023-01-03,-0.012406683925099547
2023-01-04,-0.01739869003622386
2023-01-05,-0.016094280045532473
2023-01-06,-0.014615605617580657
2023-01-09,-0.016669840794987893
2023-01-10,-0.012011759658364991
2023-01-11,-0.01508674109193247
2023-01-12,-0.01325822744611413
2023-01-13,-0.018918049155022782
2023-01-16,-0.012464351443331578
2023-01-17,-0.013574588135268406
2023-01-18,-0.012431206228522389
2023-01-19,-0.01039212214916503
2023-01-20,-0.013321083091980573
2023-01-30,-0.011021930730519441
2023-01-31,-0.01042637627159943
2023-02-01,-0.014893016269965427
2023-02-02,-0.014092745535240994
2023-02-03,-0.012143992643842867
2023-02-06,-0.009680158056952893
2023-02-07,-0.015853238549242744
2023-02-08,-0.01583787487474036
2023-02-09,-0.016598234351255303
2023-02-10,-0.013445693482478866
2023-02-13,-0.014617239775377953
2023-02-14,-0.010729993435454643
2023-02-15,-0.007639926973866051
2023-02-16,-0.011146546273548264
2023-02-17,-0.004368147103164983
2023-02-20,-0.0013495797573227354
2023-02-21,-0.0011243093782625328
2023-02-22,-0.0008884502020629192
2023-02-23,-0.001895109070663932
2023-02-24,-0.0040264090742756775
2023-02-27,0.002618297152200701
2023-02-28,0.004702792469727948
2023-03-01,-0.0029918403770939628
2023-03-02,0.001342254430918493
2023-03-03,0.011671629350395282
2023-03-06,0.018247808264534177
2023-03-07,0.02062427949174807
2023-03-08,0.018334371390134167
2023-03-09,0.025405899333470455
2023-03-10,0.0278298053053875
2023-03-13,0.022484069617857004
2023-03-14,0.016194153514440403
2023-03-15,0.018835971725618673
2023-03-16,0.011343259918744082
2023-03-17,0.005680894154396571
2023-03-20,0.01351768261010685
2023-03-21,0.020847842866990356
2023-03-22,0.018147466020799523
2023-03-23,0.01454016100843732
2023-03-24,0.004538679120726842
2023-03-27,0.008824276313923587
2023-03-28,0.022784781363079546
2023-03-29,0.01288426221037278
2023-03-30,0.017906012481700432
2023-03-31,0.007527760902539489
2023-04-03,-0.0050774521348064
2023-04-04,-0.009192533109846258
2023-04-06,0.003724491746202401
2023-04-07,-0.007276700506267605
2023-04-10,0.013650884622971017
2023-04-11,0.01104349224994369
2023-04-12,-0.015594862922652691
2023-04-13,-0.0163737667378162
2023-04-14,-0.004463370237040576
2023-04-17,0.00545593450801057
2023-04-18,0.0004756005825028442
2023-04-19,0.0011370403511516032
2023-04-20,-0.01969420449989566
2023-04-21,-0.014026928108738894
2023-04-24,-0.02168580840836313
2023-04-25,-0.030610271583756954
2023-04-26,-0.01824248063239502
2023-04-27,-0.016877178442040747
2023-04-28,-0.023977775141088252
2023-05-04,-0.01472160672041328
2023-05-05,-0.012651319235209648
2023-05-08,-0.026346000134740095
2023-05-09,-0.030270695978010013
2023-05-10,-0.020448777118709262
2023-05-11,-0.01526066303850675
2023-05-12,-0.00033042221030024806
2023-05-15,0.008405040553395818
2023-05-16,0.026710096210606757
2023-05-17,0.03515805673813381
2023-05-18,0.02593051946333899
2023-05-19,0.019607362514851144
2023-05-22,0.03338689685505802
2023-05-23,0.0342305231754062
2023-05-24,0.028386480948484526
2023-05-25,0.021957113505615442
2023-05-26,0.021220571489213608
2023-05-29,0.013786288967016665
2023-05-30,0.008567481307521652
2023-05-31,0.0020252406364124308
2023-06-01,-0.007616727820526071
2023-06-02,0.008054687255613036
2023-06-05,0.007950445748251826
2023-06-06,0.013148213409355205
2023-06-07,0.006452072302231725
2023-06-08,-0.0010336946476113378
2023-06-09,-0.006341767320500762
2023-06-12,-0.009516552754914682
2023-06-13,-0.01393908754290116
2023-06-14,-0.01939619580815565
2023-06-15,-0.014290935949648467
2023-06-16,-0.017060989909576656
2023-06-19,-0.024961903395988073
2023-06-20,-0.025767305064658852
2023-06-21,-0.022368867802419423
2023-06-26,-0.01765391248932373
2023-06-27,-0.013390955995860645
2023-06-28,-0.01437188889896718
2023-06-29,-0.017161828699315155
2023-06-30,-0.00691990648515774
2023-07-03,8.047972129745194e-05
2023-07-04,-0.007037483030227023
2023-07-05,-0.0042540917876196654
2023-07-06,-0.018040230850347817
2023-07-07,-0.02014055172756308
2023-07-10,-0.014502029583102878
2023-07-11,-0.020206140666557827
2023-07-12,-0.01802316179538128
2023-07-13,-0.023137774771407174
2023-07-14,-0.035746324069694246
2023-07-17,-0.03282727172216586
2023-07-18,-0.020679004228698776
2023-07-19,-0.021416894484383164
2023-07-20,-0.014822266222391009
2023-07-21,-0.005482757550419978
2023-07-24,-0.001058855048296052
2023-07-25,0.0036756679300835697
2023-07-26,0.005210486799593157
2023-07-27,0.007359196992609487
2023-07-28,0.007751174009819162
2023-07-31,0.006671776962696205
2023-08-01,0.006955300113949344
2023-08-02,0.00207989476501326
2023-08-03,0.00395319511893049
2023-08-04,0.0006686759274618023
2023-08-07,-5.57300430808344e-05
2023-08-08,0.008465677948077475
2023-08-09,0.011690072236996682
2023-08-10,0.012036416577616518
2023-08-11,0.011392525783215472
2023-08-14,0.014349935598356019
2023-08-15,0.004877190476556638
2023-08-16,0.004111863987112765
2023-08-17,0.0019380693999046707
2023-08-18,0.00495969309086356
2023-08-21,0.006815670284194483
2023-08-22,-0.004362005395178297
2023-08-23,-0.001522109135898085
2023-08-24,0.0015608652571444527
2023-08-25,0.004820326191354224
2023-08-28,0.001983534332258733
2023-08-29,0.0013591590654284044
2023-08-30,-0.0010084794002413987
2023-08-31,-0.0023718756916363305
2023-09-01,-0.00523670643025592
2023-09-04,-0.006031030323798623
2023-09-05,-0.006039135814185897
2023-09-06,-0.009860161552043362
2023-09-07,-0.004836181704510327
2023-09-08,-0.0030559331617576535
2023-09-11,-0.005607753498905885
2023-09-12,0.0012336234696630616
2023-09-13,-0.000525948467136432
2023-09-14,0.006149358385927239
2023-09-15,0.00930167220355305
2023-09-18,0.012234225219886086
2023-09-19,0.00993364823338394
2023-09-20,0.00526839688445422
2023-09-21,0.0025229880903831917
2023-09-22,0.0001942855702477056
2023-09-25,0.00539054264868445
2023-09-26,0.004559284249204359
2023-09-27,0.013591193155825496
2023-09-28,0.007246764700833928
2023-10-09,0.006170559871911459
2023-10-10,0.005948954317627701
2023-10-11,0.0023588832584984024
2023-10-12,0.005709633022386501
2023-10-13,-0.0017426274085198708
2023-10-16,-0.00014410789363162625
2023-10-17,0.0004141082216234434
2023-10-18,-0.0001384834416028229
2023-10-19,-0.005719201982569889
2023-10-20,-0.0014930282366300111
2023-10-23,-0.002503929926287729
2023-10-24,-0.003654125867966186
2023-10-25,0.0007701767541468674
2023-10-26,-0.0003992328922850785
2023-10-27,0.009689889114418312
2023-10-30,0.009233975367816928
2023-10-31,0.01024842866921047
2023-11-01,0.004827518733576272
2023-11-02,0.004680534034224932
2023-11-03,0.0074007671348890495
2023-11-06,0.004840301124522174
2023-11-07,-0.0020792747138128113
2023-11-08,-0.005348261406260886
2023-11-09,-0.0048965182665487526
2023-11-10,-0.009112752282656414
2023-11-13,-0.005899629470656465
2023-11-14,-0.007420021686403851
2023-11-15,-0.0017689569556129936
2023-11-16,-0.004952532314173247
2023-11-17,-0.0028431733216984865
2023-11-20,-0.0045554728849271815
2023-11-21,-0.0036819845025763825
2023-11-22,-0.00185267950663269
2023-11-23,0.0006236006785099654
2023-11-24,0.008643087625468109
2023-11-27,0.009361746867644544
2023-11-28,0.006105054857836221
2023-11-29,0.01016903987345244
2023-11-30,0.01407216998120034
2023-12-01,0.008111492529338907
2023-12-04,0.004797235948359197
2023-12-05,0.009373152965321126
2023-12-06,0.004951281396793194
2023-12-07,0.0012817219191579975
2023-12-08,-0.008389120511704946
2023-12-11,-0.01095671841158384
2023-12-12,-0.01146605425859571
2023-12-13,-0.012327450088781547
2023-12-14,-0.018440551545084227
2023-12-15,-0.016078458446189214
2023-12-18,-0.015376778792041974
2023-12-19,-0.019800172857099674
2023-12-20,-0.017126214982793517
2023-12-21,-0.014765378358516134
2023-12-22,-0.007803422413799974
2023-12-25,-0.0078441034535471
2023-12-26,-0.011346430989974319
2023-12-27,-0.008337916796433935
2023-12-28,-0.008680898468937579
2023-12-29,-0.01081802769723942
2024-01-02,-0.009212006324203777
2024-01-03,-0.002319215577131946
2024-01-04,0.0023012521409027376
2024-01-05,0.006589678099957114
2024-01-08,0.005889095786162729
2024-01-09,0.006605977555038809
2024-01-10,0.0025679536951964087
2024-01-11,-0.00809396429235959
2024-01-12,-0.004358330705947887
2024-01-15,-0.013231535228344924
2024-01-16,-0.013070507857756004
2024-01-17,-0.022457904678144944
2024-01-18,-0.015590993283121048
2024-01-19,-0.017534469020341503
2024-01-22,-0.029736005864458803
2024-01-23,-0.02397795859594659
2024-01-24,-0.011218110908340531
2024-01-25,-0.0037318955407734996
2024-01-26,-0.0043576058854858865
2024-01-29,-0.005461666141490122
2024-01-30,-0.01956977926612847
2024-01-31,-0.01355220422419652
2024-02-01,-0.006383126096574848
2024-02-02,-0.005891004629117624
2024-02-05,0.024354249388573973
2024-02-06,0.018264022368474395
2024-02-07,0.018682676202859017
2024-02-08,0.003247757624153552
2024-02-19,0.007040175160156065
2024-02-20,0.00969525354336278
2024-02-21,0.01132069001628782
2024-02-22,0.008476889631297717
2024-02-23,0.00918269874430881
2024-02-26,4.33843613431642e-05
2024-02-27,-0.019677540188834518
2024-02-28,-0.0009641475371802294
2024-02-29,-0.010643202704618295
2024-03-01,-0.009900450739150003
2024-03-04,-0.010690076192439018
2024-03-05,-0.010504124975699308
2024-03-06,4.232412002820249e-05
2024-03-07,-0.0034613493942842015
2024-03-08,-6.471675810159304e-05
2024-03-11,-0.002470518224433931
2024-03-12,-0.0029193226843985936
2024-03-13,-0.012713925343450883
2024-03-14,-0.0019000177497832966
2024-03-15,-0.0058934276142732014
2024-03-18,-0.008907729772524051
2024-03-19,-0.013023210579816686
2024-03-20,-0.020358935313543148
2024-03-21,-0.015313253900735305
2024-03-22,-0.02053581513700851
2024-03-25,-0.024461467738781124
2024-03-26,-0.009769708647347561
2024-03-27,0.0035526291719396013
2024-03-28,-0.008683447267607213
2024-03-29,-0.009314515731771077
2024-04-01,-0.003283557970804884
2024-04-02,0.0001767950011766252
2024-04-03,-0.001008381796476214
2024-04-08,-0.009375094226371327
2024-04-09,-0.01271739965201792
2024-04-10,-0.003010481148298538
2024-04-11,-0.009787970631680215
2024-04-12,-0.016429748236709795
2024-04-15,-0.01869301634522652
2024-04-16,-0.017291246750356752
2024-04-17,-0.04236105851335789
2024-04-18,-0.03697712849706271
2024-04-19,-0.034309274022290295
2024-04-22,-0.026936943387234256
2024-04-23,-0.019665025287926234
2024-04-24,-0.024834498992156374
2024-04-25,-0.02712340415281685
2024-04-26,-0.01954254768871324
2024-04-29,-0.01599776649117652
2024-04-30,-0.017051286201321368
2024-05-06,0.0020080142769066563
2024-05-07,0.005471225274772048
2024-05-08,0.0033145251535414075
2024-05-09,0.0038812816839143725
2024-05-10,0.0078114577381361155
2024-05-13,0.013194242742462886
2024-05-14,0.017617724131726967
2024-05-15,0.015277897152599853
2024-05-16,0.009784483586288395
2024-05-17,0.00954134389140487
2024-05-20,-0.0008829487845636932
2024-05-21,-0.005688227721955154
2024-05-22,-0.004398128252130876
2024-05-23,0.0004848797753662353
2024-05-24,0.001709171602594057
2024-05-27,-0.0016556942048014459
2024-05-28,-0.002498390576326349
2024-05-29,-0.004660030669408788
2024-05-30,0.004233991850077305
2024-05-31,0.0009895524140882744
2024-06-03,0.005065949124852351
2024-06-04,0.009865117548875355
2024-06-05,0.016937838510886913
2024-06-06,0.014870344053363798
2024-06-07,0.005446441352766375
2024-06-11,0.0070542174207471955
2024-06-12,0.0036720385597406747
2024-06-13,0.007251010940009191
2024-06-14,0.012705985228906484
2024-06-17,0.019726725310602676
2024-06-18,0.01816408970140087
2024-06-19,0.015604883526328737
2024-06-20,0.01129872627242429
2024-06-21,0.008670759432074984
2024-06-24,0.017160674324448393
2024-06-25,0.022545692006432833
2024-06-26,0.019458167189063375
2024-06-27,0.012069479937121657
2024-06-28,-0.00414464851042418
2024-07-01,-0.0034571777475946234
2024-07-02,-0.0017434309662778223
2024-07-03,-0.006330588501144534
2024-07-04,-0.008860928698508297
2024-07-05,-0.00880517066184026
2024-07-08,-0.025473221025183863
2024-07-09,-0.023817372266307875
2024-07-10,-0.01830399921823636
2024-07-11,-0.016840082985967817
2024-07-12,-0.009592027261651419
2024-07-15,-0.009658241623444551
2024-07-16,-0.007286312000227085
2024-07-17,-0.003228214436598256
2024-07-18,0.007109074553241244
2024-07-19,0.006402670990896635
2024-07-22,-0.006240041465561716
2024-07-23,-0.009040372506969183
2024-07-24,-0.012439288329550215
2024-07-25,-0.011221207234639746
2024-07-26,-0.007504916090832189
2024-07-29,-0.011709980853481251
2024-07-30,-0.012476104067367665
2024-07-31,0.003492562709658281
2024-08-01,-0.0027343006817995355
2024-08-02,0.00411079391056
2024-08-05,0.022896016568000888
2024-08-06,0.02928557174978122
2024-08-07,0.0293015693880418
2024-08-08,0.03518648775209009
2024-08-09,0.02424674588480849
2024-08-12,0.019770678437475327
2024-08-13,0.021527555222160544
2024-08-14,0.01357512193529761
2024-08-15,0.009072395439152652
2024-08-16,-0.001349581070504587
2024-08-19,0.0074360223803511365
2024-08-20,-0.0009630998737344496
2024-08-21,-0.012857505114096154
2024-08-22,-0.01417596032906353
2024-08-23,-0.010327207966551132
2024-08-26,-0.008423403411375402
2024-08-27,-0.010421959516887172
2024-08-28,-0.01828324655486431
2024-08-29,-0.00654030596511688
2024-08-30,0.003282492591116508
2024-09-02,-0.004840172777700925
2024-09-03,-0.0023484268361974366
2024-09-04,0.007852418356995504
2024-09-05,0.008982594361779485
2024-09-06,-0.0022051323715957596
2024-09-09,-0.0030480490263226287
2024-09-10,-0.010862703078419411
2024-09-11,-0.026134964899713897
2024-09-12,-0.06513883939264303
2024-09-13,-0.09011079229306557
2024-09-18,-0.06718612855175154
2024-09-19,-0.058930612888892286
2024-09-20,-0.044846352859283345
2024-09-23,-0.046112170402776986
2024-09-24,-0.029585076920334158
2024-09-25,-0.025750729454983357
2024-09-26,-0.008493992899134092
2024-09-27,-0.004760996273004692
2024-09-30,0.010981563183447392
2024-10-08,-0.002977516018033456
2024-10-09,0.0042390477566629755
2024-10-10,0.014045969021066616
2024-10-11,0.005594827972118476
2024-10-14,-0.0016101096463115028
2024-10-15,-0.0015752206747431073
2024-10-16,-0.0032842777045252423
2024-10-17,0.006190408938439029
2024-10-18,-0.006384096698487947
2024-10-21,-0.006175349692648344
2024-10-22,0.004054676605751938
2024-10-23,0.006095289767638949
2024-10-24,0.008545274477792832
2024-10-25,0.006278000613402501
2024-10-28,0.019117060324297344
2024-10-29,0.016826145171545327
2024-10-30,0.025167316319904286
2024-10-31,0.013119482378484787
2024-11-01,0.013999632829881477
2024-11-04,0.004736672571774326
2024-11-05,-0.003169028938823204
2024-11-06,-0.0010202667450465485
2024-11-07,-0.0028619849574952998
2024-11-08,-0.01090033536471556
2024-11-11,-0.03270827131941776
2024-11-12,-0.031131468672389813
2024-11-13,-0.033414689911534304
2024-11-14,-0.02979357534020004
2024-11-15,-0.0031449905814857496
2024-11-18,0.00969202336733711
2024-11-19,-0.008846483407537681
2024-11-20,-0.010017400680019394
2024-11-21,-0.006409297122585722
2024-11-22,0.0028649519386916185
2024-11-25,0.0017605955918436784
2024-11-26,0.008505058652276277
2024-11-27,0.0027678757328788613
2024-11-28,0.0029320926138244677
2024-11-29,-0.007316998014630724
2024-12-02,-0.010725309329650169
2024-12-03,-0.005757351917855029
2024-12-04,0.001993693943747972
2024-12-05,0.0018616160990574159
2024-12-06,0.01172307017700059
2024-12-09,0.004866431095915782
2024-12-10,0.005560036322543012
2024-12-11,-8.927930398347668e-05
2024-12-12,0.01160112878602121
2024-12-13,0.006800175241214974
2024-12-16,0.008760530971869131
2024-12-17,0.0015327060277988518
2024-12-18,-0.009695524755730163
2024-12-19,-0.02214483040989547
2024-12-20,-0.029698712320918176
2024-12-23,-0.007947812506315433
2024-12-24,-0.0036842856456658704
2024-12-25,-0.002724807523753113
2024-12-26,-0.009318796456924565
2024-12-27,-0.006122989470769509
2024-12-30,0.00020561475905486043
2024-12-31,0.007108115825976414
2025-01-02,0.006001446945688016
2025-01-03,0.015748790527087976
2025-01-06,0.010917855187402976
2025-01-07,0.003220371925978696
2025-01-08,0.012177794430174615
2025-01-09,0.011618558447754505
2025-01-10,0.012730211399960972
2025-01-13,-0.0009969955460432667
2025-01-14,-0.003146401546824768
2025-01-15,-0.0018871107348186478
2025-01-16,-0.00570345636909575
2025-01-17,-0.01207429650066897
2025-01-20,-0.0022537742948238286
2025-01-21,-0.008122957395195092
2025-01-22,-0.023980350557553404
2025-01-23,-0.028069092230516235
2025-01-24,-0.017751808106140222
2025-01-27,-0.00697584360544011
2025-02-05,-0.002763615007947841
2025-02-06,-0.00679213309499728
2025-02-07,0.00645176629710776
2025-02-10,0.010313931345917019
2025-02-11,0.008899818342293638
2025-02-12,0.0015423483373658668
2025-02-13,0.007364157983103414
2025-02-14,-0.0038423892169520265
2025-02-17,-0.01222281268681242
2025-02-18,-0.004664041314620764
2025-02-19,-0.005057862801228887
2025-02-20,0.01006968430182625
2025-02-21,-0.01457267131198587
2025-02-24,-0.019266016631933485
2025-02-25,-0.027242389085073655
2025-02-26,-0.025604845627815457
2025-02-27,-0.027022732036884125
2025-02-28,0.0024977817025632655
2025-03-03,0.004154453608609571
2025-03-04,0.004474179989982129
2025-03-05,-0.00880340608126608
2025-03-06,-0.02699587513624331
2025-03-07,-0.02969918414867021
2025-03-10,-0.02517523280788002
2025-03-11,-0.03316216994394543
2025-03-12,-0.03438509820199796
2025-03-13,-0.0214592312162903
2025-03-14,-0.026541689848051327
2025-03-17,-0.024311072975143094
2025-03-18,-0.03745166558382505
2025-03-19,-0.029828917369921437
2025-03-20,-0.03574687197645203
2025-03-21,-0.0354014374168521
2025-03-24,-0.06853655106683292
2025-03-25,-0.04739917695200732
2025-03-26,-0.03648492313492163
2025-03-27,-0.022294354540056203
2025-03-28,-0.016028524116343104
2025-03-31,-0.015816616238608517
2025-04-01,-0.01746220525172766
2025-04-02,-0.015756469722549783
2025-04-03,-0.011609991770092525
2025-04-07,0.015095830526755123
2025-04-08,0.034998930154978444
2025-04-09,0.035290911212155246
2025-04-10,0.01758307782090213
2025-04-11,0.009370522858080967
2025-04-14,0.0020158673975596074
2025-04-15,0.007999414845685116
2025-04-16,0.018394188078793873
2025-04-17,0.023408326221162658
2025-04-18,0.017917546166094075
2025-04-21,0.012498662195054924
2025-04-22,0.007544925648513532
2025-04-23,0.0007866475479938462
2025-04-24,0.002957984664410631
2025-04-25,0.0002558881937316307
2025-04-28,-0.0034843229909090855
2025-04-29,-0.0027739122737417583
2025-04-30,-0.008347486099129449
2025-05-06,-0.010367280341547002
2025-05-07,-0.008195054566165516
2025-05-08,-0.008651441734779844
2025-05-09,-0.006017948075612688
2025-05-12,-0.004389881840194062
2025-05-13,-0.0005253321049793237
2025-05-14,0.000685066412374237
2025-05-15,0.01401425175797973
2025-05-16,0.004386361325310696
2025-05-19,0.0077598408161621
2025-05-20,0.007641371120945185
2025-05-21,0.016036522907976393
2025-05-22,0.0156959772410854
2025-05-23,0.01838365912342644
2025-05-26,0.018795121299912343
2025-05-27,0.017186902933842205
2025-05-28,0.02184331917351753
2025-05-29,0.009992840288261886
2025-05-30,0.020260181399432323
2025-06-03,0.012310994137149117
2025-06-04,0.00917639732871102
2025-06-05,0.0025749290853865478
2025-06-06,0.0007090733767782294
2025-06-09,8.781662757260077e-05
2025-06-10,0.004702060045102435
2025-06-11,0.00988770866663088
2025-06-12,0.001893038393715558
2025-06-13,0.005074278794928916
2025-06-16,0.0035170953476645825
2025-06-17,0.0093622669269257
2025-06-18,0.0002783547562512888
2025-06-19,0.004655485853744354
2025-06-20,0.007129589296782375
2025-06-23,-0.0023251202775477903
2025-06-24,-0.004725010384590354
2025-06-25,-0.008223474188863798
2025-06-26,-0.007804643985728724
2025-06-27,-0.0003064531970596446
2025-06-30,-0.0016116062207400944
2025-07-01,0.005009221452567627
2025-07-02,0.014274914897273255
2025-07-03,0.018848952686809313
2025-07-04,0.016382663894970124
2025-07-07,0.01038398569558828
2025-07-08,-0.000986696289438073
2025-07-09,0.004220246539645145
2025-07-10,0.006197495967853087
2025-07-11,0.006699178799922219
2025-07-14,0.014348234471238397
2025-07-15,0.010661680800923237
2025-07-16,0.0039161576748923815
2025-07-17,0.006021208953907238
2025-07-18,0.004460110541351746
2025-07-21,0.01030484386786236
2025-07-22,0.018409855305315293
2025-07-23,0.017697254157160242
2025-07-24,0.016091779251825374
2025-07-25,0.010341521243722573
2025-07-28,0.004586615778550659
2025-07-29,0.00043305191574128233
2025-07-30,0.010576714368650595
2025-07-31,0.006346580926689851
2025-08-01,0.012624500186972261
2025-08-04,0.01974160185599439
2025-08-05,0.013137339768834924
2025-08-06,0.008796635942322169
2025-08-07,0.009325059348522298
2025-08-08,0.023085684849650963
2025-08-11,0.032366432142090645
2025-08-12,0.02615168989541837
2025-08-13,0.020015006181904132
2025-08-14,0.0349942536356388
2025-08-15,0.029279693536476095
2025-08-18,0.039456305502558874
2025-08-19,0.03178017450062268
2025-08-20,0.032619853260180104
2025-08-21,0.010540907084743307
2025-08-22,0.005586717001343873
2025-08-25,-0.013734204664156442
2025-08-26,-0.011551745028595857
2025-08-27,-0.010460180449662923
2025-08-28,-0.01645381042500444
2025-08-29,-0.0057769951550035135
2025-09-01,-0.013980359860621022
2025-09-02,0.012880957172159459
2025-09-03,0.012032576261495845
2025-09-04,0.05983801209558372
2025-09-05,0.024745134779486394
2025-09-08,0.05641199087164249
2025-09-09,0.06718847604207914
2025-09-10,0.06894876132866941
2025-09-11,0.05000820214388613
2025-09-12,0.033362136727971524
2025-09-15,0.048240157932283034
2025-09-16,0.046122643643747414
2025-09-17,0.05338529116843344
2025-09-18,0.015361277805754376
2025-09-19,0.030663887397291954
2025-09-22,-0.01965757050954632
2025-09-23,-0.013262673740861089
2025-09-24,-0.031364749764758476
2025-09-25,-0.050087339781804664
2025-09-26,-0.03952525909593343
2025-09-29,-0.0349671439085886
2025-09-30,-0.04518933032821386
2025-10-09,-0.05946400088078073
2025-10-10,-0.004993275247571026
2025-10-13,-0.004148651555672695
2025-10-14,0.027657220531296833
2025-10-15,0.030646400896109365
2025-10-16,0.025231063058936423
2025-10-17,0.02540345276018298
2025-10-20,0.018567854752034853
2025-10-21,-0.004941027291698817
2025-10-22,-0.0018751969463808183
2025-10-23,0.018713832807916497
2025-10-24,-0.013544244540902627
2025-10-27,-0.03475288582788674
2025-10-28,-0.0439363147396555
2025-10-29,-0.05683417291093587
2025-10-30,-0.042665150874496585
2025-10-31,-0.03820822192810258
2025-11-03,-0.030184211674092826
2025-11-04,-0.01840090245915071
2025-11-05,-0.01773013710597509
2025-11-06,-0.032135139782414855
2025-11-07,-0.03972625389191618
2025-11-10,-0.027206020704499304
2025-11-11,-0.009814847412553111
2025-11-12,0.005195901167101568
2025-11-13,-0.001765609734808389
2025-11-14,0.013998435917214726
2025-11-17,0.01580324881133333
2025-11-18,0.009916628131076978
2025-11-19,0.007654221343837014
2025-11-20,0.01598969223233166
2025-11-21,0.0354672764400885
2025-11-24,0.05031865184289851
2025-11-25,0.04426735551044263
2025-11-26,0.03152786008043642
2025-11-27,0.026946407103713516
2025-11-28,0.027376973326006866
2025-12-01,0.013625670745556878
2025-12-02,0.00934263025047462
2025-12-03,0.02442874226349881
2025-12-04,0.007905133748215188
2025-12-05,0.00740380271271624
2025-12-08,0.006726726546800601
2025-12-09,0.0052188471949320345
2025-12-10,0.012609457026633629
2025-12-11,0.015634219321353397
2025-12-12,0.011918198744013208
2025-12-15,0.024044229128915504
2025-12-16,0.036892712422941176
2025-12-17,0.020040693478432528
2025-12-18,0.04231892993115492
2025-12-19,0.04983310783905635
2025-12-22,0.04169823315635667
2025-12-23,0.035555347415868396
2025-12-24,0.035654341576751576
2025-12-25,0.052307639975824244
2025-12-26,0.03330335910234183
2025-12-29,0.03816134936200889
2025-12-30,0.038224801171082304
2025-12-31,0.04989260233753263
2026-01-05,0.034841377259986955
2026-01-06,0.016027677448355565
2026-01-07,0.023665406070829807
2026-01-08,0.02441013330856126
2026-01-09,0.02657293507892697
2026-01-12,0.00023942608541040384
2026-01-13,0.03167618082589829
2026-01-14,0.02461211134042875
2026-01-15,0.006564496513880681
2026-01-16,-0.0021481466232361416
2026-01-19,-0.017043407866855834
2026-01-20,0.011890681545189422
2026-01-21,-0.01924772651707526
2026-01-22,-0.03601304446906548
2026-01-23,-0.04758886608481636
2026-01-26,-0.025749660329303096
2026-01-27,-0.03510009380293781
2026-01-28,-0.04149278858710659
2026-01-29,-0.011363552929140382
2026-01-30,-0.007430039678790378
2026-02-02,0.017884028756241198
2026-02-03,0.006315475887480817
2026-02-04,0.03282735815151064
2026-02-05,0.05072470971871828
2026-02-06,0.06343229405474618
2026-02-09,0.020557879750157694
2026-02-10,0.024278674198508293
2026-02-11,0.03238070542259652
2026-02-12,0.00884130622928179
2026-02-13,0.012167390744699025
2026-02-24,0.009507957327805516
2026-02-25,-0.0019009848635763629
2026-02-26,-0.018866154373232236
2026-02-27,-0.026632184770567627
2026-03-02,-0.04100987792204606
2026-03-03,-0.04082838984110551
2026-03-04,-0.035716015049426286
2026-03-05,-0.040753171044718484
2026-03-06,-0.029185237756360737
2026-03-09,-0.028722672646807924
2026-03-10,-0.029439260262571286
2026-03-11,-0.018186060149814463
2026-03-12,-0.016651373228717632
2026-03-13,-0.010825399779495763
2026-03-16,-0.0028279960259009196
2026-03-17,0.002351261540602896
2026-03-18,-0.006463143945331779
2026-03-19,-0.011275236025165239
2026-03-20,-0.007202025128208122
2026-03-23,-0.002502679805878448
2026-03-24,0.015491696638677815
2026-03-25,0.015123766706384455
2026-03-26,0.025609633291166483
2026-03-27,0.03236513976877973
2026-03-30,0.03413041739733563
2026-03-31,0.040219663800605626
2026-04-01,0.04477306562724272
2026-04-02,0.0700704434087237
2026-04-03,0.06530015334841566
2026-04-07,0.05651077371689876
2026-04-08,0.05514889570376748
2026-04-09,0.04523461523001459
2026-04-10,0.033552431560694984
2026-04-13,0.0414875972910488
2026-04-14,0.022436952003965324
2026-04-15,0.034606384462688176
2026-04-16,0.037279861090767225
2026-04-17,0.04963810627599981
2026-04-20,0.0551909584775668
2026-04-21,0.056871326181833416
2026-04-22,0.06039716238346732
2026-04-23,0.07090129859994851
2026-04-24,0.09456344407842186
2026-04-27,0.0640088944347234
2026-04-28,0.07568105791448748
2026-04-29,0.0808043859598048
2026-04-30,0.0733243451341363
2026-05-06,0.0673158532952754
2026-05-07,0.04044534672877664
2026-05-08,0.0678782360186058
2026-05-11,0.07107397215007807
2026-05-12,0.060364379293475184
2026-05-13,0.034672790718540014
2026-05-14,0.06154670759668893
2026-05-15,0.032649657972552516
2026-05-18,-0.0052178164809163
2026-05-19,0.008566951404929447
2026-05-20,0.016823975071138815
2026-05-21,0.041158469482694374
2026-05-22,-0.0010019660763787817
2026-05-25,-0.044533723118039686
2026-05-26,-0.010457659901591539
2026-05-27,-0.019189064876012307
2026-05-28,-0.03225799336685988
2026-05-29,-0.005063780655991949
2026-06-01,0.061308835822650606
2026-06-02,0.0670154779992171
2026-06-03,0.07056358338855209
2026-06-04,0.08921134987153839
2026-06-05,0.12460369109192486
2026-06-08,0.13109522263234047
2026-06-09,0.11885956887961041
2026-06-10,0.16605176623326037
